278
-1284
-2711
-3859
-4619
-4918
-4726
-4063
-2992
-1617
-72
1490
2913
4052
4791
5054
4814
4094
2968
1548
-21
-1583
-2983
-4081
-4771
-4986
-4704
-3953
-2807
-1378
190
1744
3127
4199
4851
5019
4686
3887
2708
1269
-282
-1790
-3107
-4105
-4690
-4807
-4444
-3634
-2454
-1017
535
2048
3367
4357
4916
4985
4559
3680
2441
970
-583
-2065
-3327
-4248
-4740
-4758
-4298
-3404
-2161
-687
870
2358
3622
4533
4996
4962
4435
3470
2166
659
-897
-2347
-3548
-4384
-4778
-4695
-4142
-3172
-1876
-379
1172
2624
3828
4659
5030
4901
4284
3243
1883
344
-1219
-2652
-3812
-4587
-4903
-4729
-4083
-3025
-1660
-120
1441
2868
4016
4766
5044
4819
4114
3002
1596
 36
-1519
-2916
-4016
-4710
-4932
-4660
-3921
-2786
-1367
194
1743
3125
4200
4858
5033
4708
3917
2740
1297
-264
-1791
-3131
-4154
-4760
-4889
-4530
-3714
-2520
-1065
506
2038
3374
4378
4950
5029
4610
3737
2499
1026
-533
-2023
-3297
-4232
-4741
-4774
-4330
-3450
-2216
-748
811
2304
3581
4509
4992
4980
4475
3529
2241
743
-810
-2265
-3477
-4330
-4746
-4686
-4158
-3209
-1932
-448
1097
2548
3757
4598
4982
4868
4267
3240
1892
360
-1201
-2635
-3801
-4586
-4913
-4753
-4119
-3073
-1716
-180
1380
2811
3967
4728
5016
4802
4106
2998
1588
 20
-1549
-2965
-4084
-4797
-5034
-4771
-4035
-2898
-1471
102
1667
3068
4162
4841
5034
4724
3939
2760
1305
-280
-1837
-3210
-4264
-4893
-5035
-4678
-3855
-2649
-1179
408
1957
3311
4336
4928
5029
4631
3774
2550
1083
-475
-1971
-3255
-4205
-4730
-4780
-4351
-3482
-2255
-788
773
2275
3562
4503
4999
4998
4501
3559
2270
766
-799
-2268
-3498
-4369
-4799
-4749
-4223
-3271
-1983
-483
1080
2550
3778
4636
5034
4932
4338
3314
1965
429
-1137
-2579
-3754
-4547
-4883
-4729
-4102
-3061
-1707
-174
1386
2817
3974
4738
5031
4824
4136
3037
1639
 81
-1478
-2886
-4002
-4715
-4957
-4705
-3983
-2863
-1455
100
1651
3041
4131
4810
5010
4710
3940
2776
1335
-238
-1787
-3157
-4211
-4844
-4994
-4646
-3833
-2635
-1172
410
1956
3310
4336
4930
5033
4636
3781
2557
1091
-467
-1962
-3246
-4195
-4719
-4769
-4339
-3470
-2244
-778
783
2283
3571
4512
5011
5014
4522
3586
2304
807
-751
-2216
-3442
-4311
-4741
-4692
-4169
-3220
-1936
-441
1117
2583
3807
4662
5058
4954
4359
3336
1987
452
-1115
-2558
-3736
-4532
-4872
-4723
-4100
-3063
-1711
-178
1384
2819
3982
4754
5056
4856
4174
3079
1681
121
-1443
-2858
-3980
-4700
-4947
-4697
-3974
-2850
-1435
129
1690
3090
4187
4872
5074
4772
3997
2825
1374
-208
-1767
-3144
-4204
-4840
-4990
-4638
-3821
-2617
-1148
441
1992
3350
4377
4971
5072
4672
3813
2585
1116
-445
-1942
-3227
-4176
-4699
-4748
-4317
-3449
-2223
-760
797
2293
3575
4511
5003
5000
4504
3565
2281
784
-773
-2236
-3461
-4329
-4759
-4711
-4190
-3244
-1963
-469
1089
2557
3784
4645
5049
4954
4368
3352
2009
476
-1091
-2538
-3720
-4524
-4870
-4727
-4108
-3071
-1718
-180
1389
2833
4004
4783
5089
4892
4210
3112
1709
142
-1429
-2850
-3978
-4702
-4951
-4700
-3975
-2848
-1428
141
1705
3108
4207
4893
5095
4792
4015
2842
1390
-193
-1752
-3129
-4188
-4823
-4971
-4618
-3799
-2595
-1125
463
2012
3367
4390
4981
5078
4674
3812
2581
1108
-455
-1955
-3242
-4193
-4718
-4769
-4340
-3471
-2244
-778
783
2284
3571
4513
5010
5012
4518
3580
2294
794
-767
-2234
-3462
-4333
-4764
-4716
-4193
-3244
-1959
-463
1096
2564
3788
4643
5039
4934
4337
3310
1959
420
-1150
-2596
-3774
-4571
-4908
-4756
-4127
-3083
-1724
-184
1385
2825
3992
4765
5065
4861
4174
3072
1667
100
-1471
-2891
-4017
-4739
-4987
-4736
-4012
-2886
-1469
 96
1657
3056
4152
4834
5033
4729
3952
2779
1328
-254
-1812
-3188
-4247
-4883
-5034
-4684
-3869
-2669
-1202
385
1935
3293
4323
4921
5027
4634
3781
2559
1093
-466
-1963
-3251
-4204
-4733
-4787
-4362
-3496
-2271
-805
757
2259
3548
4491
4991
4994
4501
3563
2278
777
-784
-2252
-3480
-4352
-4783
-4734
-4212
-3263
-1980
-486
1071
2536
3760
4616
5014
4913
4324
3306
1964
436
-1125
-2564
-3738
-4534
-4874
-4727
-4107
-3072
-1724
-194
1365
2799
3961
4732
5033
4833
4149
3051
1648
 82
-1489
-2911
-4042
-4770
-5022
-4776
-4055
-2930
-1512
 58
1625
3033
4139
4833
5043
4749
3981
2814
1368
-213
-1771
-3151
-4216
-4860
-5020
-4680
-3875
-2685
-1226
354
1900
3257
4289
4893
5008
4624
3782
2570
1112
-441
-1937
-3227
-4187
-4726
-4793
-4381
-3527
-2313
-854
705
2209
3504
4457
4968
4983
4503
3575
2296
799
-763
-2235
-3471
-4351
-4792
-4754
-4240
-3299
-2019
-526
1034
2506
3738
4604
5013
4924
4344
3334
1998
473
-1084
-2520
-3694
-4493
-4843
-4711
-4112
-3102
-1776
-264
1287
2722
3894
4683
5006
4828
4166
3087
1698
141
-1428
-2853
-3991
-4730
-4997
-4766
-4060
-2948
-1539
 26
1594
3007
4124
4831
5057
4780
4027
2875
1440
-134
-1692
-3078
-4156
-4819
-5003
-4689
-3908
-2737
-1289
290
1845
3219
4274
4903
5045
4685
3863
2664
1213
-342
-1846
-3150
-4128
-4685
-4771
-4375
-3535
-2330
-876
683
2192
3495
4460
4985
5015
4549
3634
2366
875
-686
-2163
-3409
-4306
-4768
-4754
-4265
-3347
-2087
-607
948
2424
3668
4553
4986
4923
4369
3381
2063
550
-1003
-2442
-3624
-4435
-4801
-4688
-4108
-3115
-1804
-299
1250
2690
3874
4679
5020
4860
4214
3146
1766
211
-1359
-2791
-3941
-4694
-4978
-4765
-4076
-2980
-1585
-29
1533
2945
4066
4781
5018
4754
4013
2871
1443
-128
-1685
-3072
-4152
-4818
-5004
-4692
-3912
-2742
-1295
283
1840
3218
4278
4914
5062
4707
3887
2687
1232
-331
-1845
-3161
-4153
-4726
-4826
-4444
-3614
-2416
-965
597
2113
3428
4409
4953
5004
4557
3660
2406
925
-631
-2107
-3357
-4262
-4736
-4735
-4261
-3357
-2107
-633
922
2403
3658
4558
5009
4962
4421
3443
2130
616
-942
-2389
-3583
-4407
-4786
-4684
-4112
-3125
-1816
-311
1241
2687
3878
4691
5040
4889
4252
3194
1824
281
-1277
-2696
-3837
-4588
-4877
-4677
-4007
-2933
-1558
-16
1538
2951
4077
4803
5054
4803
4075
2943
1522
-45
-1603
-2995
-4083
-4759
-4959
-4661
-3897
-2740
-1306
263
1812
3187
4248
4889
5046
4702
3895
2710
1267
-283
-1789
-3101
-4091
-4667
-4772
-4398
-3577
-2387
-942
615
2130
3448
4433
4984
5042
4602
3710
2457
974
-587
-2073
-3336
-4255
-4741
-4751
-4282
-3380
-2129
-649
911
2398
3659
4564
5018
4974
4438
3464
2154
644
-911
-2357
-3550
-4377
-4760
-4665
-4103
-3126
-1827
-331
1216
2660
3854
4674
5034
4895
4271
3226
1866
330
-1227
-2650
-3799
-4561
-4864
-4678
-4021
-2957
-1587
-46
1512
2933
4073
4813
5078
4842
4126
3004
1590
 26
-1531
-2927
-4023
-4712
-4927
-4647
-3899
-2757
-1331
235
1789
3172
4246
4902
5074
4745
3948
2766
1320
-246
-1776
-3118
-4143
-4750
-4881
-4522
-3707
-2515
-1060
510
2041
3376
4380
4950
5029
4609
3733
2495
1020
-539
-2028
-3300
-4230
-4732
-4758
-4306
-3417
-2175
-700
862
2355
3627
4546
5017
4990
4469
3507
2206
700
-855
-2306
-3509
-4347
-4744
-4663
-4114
-3148
-1857
-366
1180
2625
3823
4648
5013
4880
4261
3219
1859
321
-1239
-2668
-3825
-4596
-4908
-4731
-4082
-3024
-1658
-118
1443
2869
4015
4765
5041
4815
4109
2994
1584
 20
-1540
-2942
-4048
-4748
-4974
-4703
-3962
-2823
-1397
175
1737
3132
4220
4889
5072
4752
3961
2781
1332
-238
-1775
-3126
-4159
-4775
-4913
-4559
-3747
-2555
-1099
475
2012
3355
4369
4950
5041
4632
3768
2538
1070
-487
-1979
-3258
-4202
-4721
-4768
-4337
-3469
-2246
-784
770
2264
3543
4475
4963
4957
4455
3510
2220
717
-844
-2309
-3533
-4397
-4819
-4761
-4228
-3271
-1980
-480
1079
2543
3762
4610
4999
4887
4287
3259
1909
375
-1189
-2627
-3797
-4586
-4918
-4761
-4131
-3087
-1731
-194
1369
2805
3966
4736
5033
4829
4142
3041
1638
 73
-1496
-2913
-4036
-4755
-4998
-4742
-4013
-2881
-1459
111
1675
3075
4171
4850
5046
4738
3959
2790
1350
-215
-1750
-3102
-4139
-4761
-4908
-4564
-3763
-2580
-1131
438
1973
3318
4336
4923
5021
4621
3764
2540
1075
-481
-1975
-3258
-4208
-4733
-4786
-4361
-3497
-2275
-813
743
2241
3526
4466
4964
4967
4475
3540
2258
762
-795
-2260
-3486
-4355
-4786
-4739
-4218
-3272
-1991
-498
1058
2523
3747
4604
5003
4903
4314
3297
1955
426
-1135
-2573
-3745
-4538
-4876
-4725
-4100
-3062
-1711
-178
1383
2817
3978
4748
5048
4845
4161
3063
1662
 99
-1469
-2887
-4013
-4737
-4987
-4738
-4016
-2891
-1473
 95
1662
3068
4172
4864
5073
4778
4007
2839
1390
-193
-1753
-3133
-4196
-4837
-4993
-4647
-3834
-2634
-1167
421
1973
3334
4367
4968
5079
4689
3840
2621
1157
-401
-1899
-3190
-4148
-4686
-4751
-4339
-3487
-2277
-825
725
2218
3503
4446
4949
4960
4477
3550
2277
786
-768
-2231
-3460
-4336
-4775
-4738
-4227
-3290
-2015
-525
1032
2504
3739
4609
5024
4940
4365
3358
2022
493
-1073
-2523
-3712
-4524
-4881
-4748
-4139
-3112
-1765
-231
1337
2782
3957
4742
5055
4863
4186
3090
1687
118
-1460
-2890
-4030
-4767
-5030
-4793
-4080
-2963
-1550
 17
1585
2996
4109
4813
5035
4755
4001
2848
1412
-160
-1714
-3094
-4164
-4816
-4987
-4660
-3867
-2687
-1237
339
1885
3245
4282
4892
5013
4633
3793
2581
1120
-440
-1942
-3239
-4204
-4746
-4813
-4398
-3539
-2317
-849
718
2231
3533
4492
5008
5028
4550
3624
2349
854
-707
-2179
-3417
-4302
-4750
-4722
-4220
-3291
-2024
-540
1014
2485
3722
4599
5024
4953
4393
3403
2084
573
-975
-2408
-3583
-4389
-4749
-4633
-4052
-3061
-1753
-253
1290
2725
3904
4706
5045
4885
4240
3174
1795
240
-1332
-2766
-3918
-4674
-4960
-4748
-4058
-2959
-1557
  6
1578
2999
4128
4851
5093
4831
4091
2946
1513
-63
-1628
-3024
-4112
-4784
-4975
-4666
-3888
-2718
-1272
304
1856
3227
4279
4908
5050
4692
3872
2676
1227
-326
-1831
-3137
-4119
-4684
-4777
-4391
-3560
-2363
-914
642
2151
3460
4432
4968
5011
4557
3653
2394
910
-647
-2122
-3370
-4269
-4736
-4729
-4248
-3338
-2086
-611
942
2419
3668
4561
5004
4950
4404
3424
2110
600
-951
-2390
-3572
-4386
-4755
-4645
-4068
-3080
-1772
-272
1274
2712
3895
4700
5043
4886
4246
3187
1816
275
-1281
-2699
-3838
-4587
-4876
-4676
-4007
-2933
-1559
-17
1537
2950
4077
4805
5058
4810
4085
2957
1538
-27
-1584
-2976
-4066
-4746
-4951
-4660
-3903
-2754
-1327
237
1784
3159
4223
4869
5032
4695
3895
2715
1275
-276
-1785
-3102
-4101
-4686
-4802
-4437
-3624
-2439
-996
562
2080
3405
4398
4958
5027
4597
3715
2472
997
-558
-2040
-3301
-4219
-4708
-4722
-4261
-3365
-2122
-649
906
2390
3650
4557
5015
4978
4449
3482
2180
677
-873
-2316
-3508
-4336
-4721
-4630
-4072
-3099
-1804
-310
1235
2680
3875
4698
5062
4928
4309
3266
1907
368
-1194
-2627
-3788
-4565
-4883
-4714
-4072
-3019
-1656
-118
1443
2872
4023
4778
5060
4839
4137
3025
1617
 53
-1508
-2912
-4020
-4722
-4950
-4682
-3943
-2806
-1382
186
1743
3133
4214
4877
5055
4729
3935
2754
1306
-262
-1793
-3138
-4163
-4771
-4901
-4542
-3726
-2533
-1079
490
2019
3353
4356
4926
5006
4589
3718
2484
1014
-542
-2030
-3303
-4239
-4750
-4788
-4349
-3474
-2245
-781
774
2265
3540
4468
4951
4939
4435
3489
2200
701
-854
-2312
-3527
-4383
-4798
-4735
-4199
-3240
-1950
-452
1106
2568
3787
4637
5028
4920
4325
3301
1954
422
-1142
-2582
-3756
-4549
-4887
-4735
-4109
-3069
-1714
-177
1388
2826
3991
4764
5064
4861
4175
3075
1672
107
-1461
-2878
-4002
-4721
-4966
-4712
-3985
-2857
-1439
127
1688
3086
4181
4863
5062
4758
3981
2810
1362
-217
-1770
-3142
-4197
-4830
-4979
-4630
-3817
-2622
-1162
415
1954
3301
4320
4909
5010
4612
3759
2538
1077
-477
-1969
-3252
-4203
-4731
-4787
-4366
-3506
-2288
-829
727
2225
3513
4457
4960
4969
4482
3551
2271
775
-784
-2252
-3483
-4359
-4797
-4755
-4237
-3293
-2012
-517
1045
2517
3750
4617
5027
4938
4357
3346
2006
475
-1092
-2540
-3727
-4536
-4891
-4757
-4147
-3120
-1775
-243
1323
2767
3942
4729
5047
4863
4195
3110
1719
160
-1408
-2832
-3968
-4705
-4970
-4738
-4032
-2921
-1515
 46
1610
3019
4131
4835
5059
4781
4026
2872
1434
-144
-1705
-3093
-4171
-4832
-5012
-4692
-3905
-2728
-1279
298
1848
3215
4261
4882
5017
4651
3826
2626
1175
-379
-1881
-3183
-4161
-4721
-4810
-4421
-3587
-2389
-941
614
2121
3427
4397
4929
4970
4516
3613
2356
875
-678
-2148
-3391
-4286
-4751
-4742
-4262
-3355
-2106
-634
915
2389
3636
4528
4970
4917
4373
3394
2082
572
-980
-2421
-3607
-4424
-4796
-4689
-4114
-3124
-1814
-309
1243
2688
3878
4689
5036
4882
4241
3179
1805
258
-1304
-2727
-3871
-4624
-4915
-4715
-4044
-2968
-1590
-46
1510
2925
4053
4781
5032
4781
4054
2923
1502
-64
-1621
-3012
-4100
-4777
-4978
-4684
-3924
-2774
-1345
219
1766
3140
4204
4851
5014
4680
3883
2707
1271
-277
-1784
-3101
-4102
-4690
-4811
-4452
-3646
-2467
-1030
523
2039
3362
4355
4917
4988
4561
3681
2439
964
-593
-2078
-3343
-4267
-4762
-4782
-4325
-3432
-2190
-716
843
2333
3601
4517
4985
4958
4439
3480
2183
680
-873
-2323
-3527
-4370
-4774
-4702
-4163
-3207
-1925
-439
1104
2553
3759
4597
4980
4866
4267
3243
1899
370
-1186
-2618
-3783
-4568
-4897
-4739
-4108
-3065
-1710
-176
1383
2813
3967
4726
5012
4795
4096
2987
1579
 15
-1547
-2954
-4063
-4768
-4998
-4731
-3993
-2856
-1432
139
1700
3096
4184
4857
5044
4729
3945
2771
1329
-236
-1770
-3119
-4153
-4771
-4912
-4563
-3756
-2569
-1118
452
1986
3327
4340
4921
5013
4607
3745
2518
1052
-502
-1992
-3271
-4216
-4737
-4786
-4359
-3495
-2274
-813
743
2241
3528
4471
4974
4983
4497
3567
2290
796
-761
-2228
-3458
-4334
-4772
-4731
-4217
-3276
-1998
-507
1049
2516
3743
4602
5005
4908
4320
3302
1958
424
-1143
-2589
-3770
-4572
-4918
-4773
-4153
-3117
-1764
-227
1341
2785
3956
4737
5046
4852
4175
3082
1684
122
-1445
-2864
-3992
-4718
-4970
-4725
-4006
-2885
-1472
 94
1657
3062
4168
4863
5077
4789
4027
2867
1425
-153
-1711
-3094
-4164
-4815
-4984
-4653
-3856
-2672
-1217
361
1907
3266
4301
4908
5026
4645
3805
2593
1134
-421
-1918
-3209
-4170
-4708
-4774
-4359
-3503
-2286
-824
737
2244
3541
4495
5006
5023
4542
3613
2334
836
-729
-2204
-3444
-4330
-4779
-4748
-4241
-3305
-2031
-540
1019
2492
3727
4598
5013
4930
4357
3351
2018
491
-1073
-2519
-3706
-4517
-4875
-4745
-4140
-3117
-1775
-245
1320
2765
3944
4736
5059
4881
4219
3139
1752
196
-1370
-2793
-3930
-4669
-4936
-4707
-4005
-2897
-1493
 68
1632
3042
4158
4866
5094
4821
4072
2925
1494
-76
-1630
-3013
-4087
-4748
-4930
-4615
-3834
-2664
-1219
354
1902
3266
4311
4930
5062
4694
3865
2663
1211
-343
-1845
-3147
-4123
-4681
-4770
-4381
-3549
-2355
-911
638
2139
3439
4404
4933
4972
4516
3613
2355
874
-678
-2149
-3391
-4286
-4749
-4738
-4254
-3342
-2088
-613
939
2414
3660
4549
4987
4929
4379
3396
2080
570
-981
-2418
-3599
-4410
-4777
-4665
-4088
-3098
-1789
-287
1260
2701
3887
4697
5046
4896
4263
3210
1845
307
-1248
-2667
-3810
-4566
-4861
-4669
-4007
-2938
-1567
-28
1527
2941
4071
4801
5054
4805
4076
2942
1517
-56
-1619
-3016
-4108
-4786
-4985
-4686
-3918
-2757
-1319
254
1807
3183
4244
4883
5036
4687
3876
2685
1239
-315
-1822
-3134
-4123
-4696
-4799
-4422
-3598
-2405
-957
602
2120
3440
4427
4980
5040
4603
3713
2464
983
-577
-2063
-3327
-4248
-4738
-4753
-4290
-3392
-2146
-672
885
2371
3632
4539
4998
4960
4431
3464
2161
654
-900
-2348
-3547
-4383
-4778
-4696
-4146
-3180
-1889
-398
1147
2594
3793
4622
4992
4865
4253
3217
1864
331
-1227
-2655
-3812
-4585
-4900
-4727
-4082
-3027
-1664
-126
1433
2858
4005
4755
5033
4808
4104
2993
1586
 26
-1529
-2927
-4028
-4724
-4947
-4676
-3937
-2801
-1381
182
1735
3121
4200
4863
5042
4721
3932
2756
1314
-250
-1781
-3127
-4157
-4771
-4909
-4558
-3749
-2561
-1109
461
1993
3333
4343
4921
5007
4595
3727
2494
1024
-533
-2022
-3296
-4232
-4742
-4777
-4334
-3455
-2221
-753
805
2299
3576
4504
4987
4976
4472
3527
2239
740
-815
-2273
-3490
-4349
-4768
-4709
-4178
-3223
-1935
-439
1118
2582
3802
4652
5043
4933
4333
3304
1950
409
-1162
-2608
-3786
-4581
-4917
-4761
-4129
-3081
-1719
-178
1390
2828
3989
4755
5047
4835
4140
3034
1628
 65
-1498
-2907
-4021
-4732
-4971
-4714
-3988
-2862
-1448
114
1670
3063
4153
4830
5025
4719
3941
2770
1322
-255
-1808
-3180
-4235
-4869
-5019
-4671
-3859
-2663
-1201
380
1925
3279
4305
4902
5008
4614
3762
2542
1078
-479
-1975
-3260
-4211
-4738
-4790
-4362
-3494
-2268
-801
762
2265
3554
4497
4996
4999
4506
3568
2284
786
-772
-2237
-3462
-4330
-4759
-4708
-4184
-3235
-1952
-459
1097
2562
3784
4638
5035
4933
4342
3322
1978
445
-1120
-2563
-3742
-4542
-4886
-4741
-4122
-3088
-1738
-206
1357
2796
3962
4739
5045
4848
4169
3075
1677
115
-1454
-2873
-4002
-4729
-4983
-4739
-4023
-2903
-1492
 71
1632
3034
4135
4825
5033
4737
3968
2802
1355
-226
-1784
-3164
-4229
-4872
-5030
-4688
-3880
-2685
-1223
360
1908
3264
4293
4891
4998
4605
3754
2533
1068
-489
-1985
-3272
-4226
-4756
-4812
-4390
-3528
-2308
-846
712
2213
3504
4451
4958
4971
4489
3563
2289
797
-759
-2226
-3457
-4335
-4775
-4736
-4223
-3281
-2002
-507
1056
2531
3767
4637
5049
4962
4382
3369
2028
494
-1076
-2528
-3718
-4529
-4884
-4749
-4138
-3108
-1759
-224
1344
2789
3965
4751
5067
4880
4208
3120
1724
161
-1411
-2837
-3975
-4713
-4980
-4748
-4043
-2932
-1527
 34
1597
3006
4117
4821
5046
4769
4018
2869
1438
-129
-1680
-3058
-4127
-4782
-4958
-4638
-3852
-2678
-1230
346
1894
3260
4304
4923
5053
4683
3852
2646
1191
-366
-1869
-3171
-4145
-4701
-4786
-4391
-3553
-2350
-899
659
2169
3477
4448
4983
5026
4573
3671
2415
934
-619
-2091
-3336
-4234
-4702
-4696
-4217
-3310
-2061
-587
964
2441
3690
4584
5027
4972
4425
3441
2123
607
-953
-2400
-3591
-4413
-4788
-4683
-4109
-3120
-1810
-305
1247
2692
3882
4693
5040
4886
4246
3185
1812
267
-1293
-2714
-3856
-4607
-4895
-4693
-4022
-2945
-1568
-24
1531
2944
4071
4797
5049
4799
4074
2945
1527
-37
-1592
-2982
-4070
-4747
-4949
-4655
-3894
-2743
-1313
253
1802
3177
4240
4884
5044
4703
3899
2714
1272
-281
-1790
-3106
-4101
-4680
-4789
-4417
-3597
-2407
-960
599
2117
3438
4426
4979
5040
4602
3711
2460
977
-585
-2074
-3340
-4264
-4757
-4773
-4312
-3416
-2170
-693
867
2357
3624
4538
5004
4974
4450
3488
2187
683
-871
-2320
-3520
-4357
-4753
-4672
-4122
-3156
-1864
-370
1179
2630
3833
4665
5038
4911
4298
3258
1900
360
-1206
-2643
-3809
-4591
-4913
-4745
-4103
-3049
-1683
-141
1425
2859
4015
4776
5063
4847
4150
3044
1639
 79
-1480
-2884
-3993
-4699
-4932
-4669
-3938
-2809
-1392
170
1724
3114
4198
4867
5053
4738
3954
2782
1342
-221
-1752
-3100
-4134
-4753
-4897
-4553
-3751
-2569
-1122
446
1979
3322
4338
4924
5020
4617
3759
2533
1066
-491
-1985
-3268
-4215
-4736
-4784
-4351
-3479
-2250
-782
779
2278
3562
4497
4987
4979
4476
3529
2238
736
-821
-2279
-3494
-4347
-4761
-4697
-4162
-3206
-1921
-428
1125
2584
3800
4648
5037
4928
4330
3305
1956
421
-1144
-2586
-3761
-4555
-4892
-4739
-4111
-3068
-1711
-172
1395
2834
3999
4771
5070
4864
4175
3071
1663
 95
-1476
-2895
-4018
-4736
-4977
-4718
-3986
-2853
-1431
139
1701
3099
4190
4866
5057
4746
3965
2794
1353
-211
-1744
-3095
-4130
-4750
-4894
-4549
-3745
-2560
-1111
459
1994
3337
4353
4937
5032
4627
3766
2539
1072
-483
-1974
-3252
-4195
-4711
-4753
-4317
-3443
-2212
-744
816
2313
3594
4526
5012
5002
4497
3549
2257
753
-808
-2271
-3492
-4354
-4775
-4716
-4184
-3229
-1941
-444
1113
2576
3795
4645
5036
4927
4329
3302
1951
414
-1154
-2597
-3774
-4569
-4907
-4755
-4128
-3086
-1731
-196
1366
2798
3955
4718
5009
4796
4102
2996
1589
 24
-1542
-2953
-4070
-4780
-5016
-4753
-4019
-2884
-1461
109
1673
3073
4170
4853
5053
4750
3975
2805
1357
-222
-1776
-3149
-4205
-4838
-4986
-4635
-3819
-2619
-1153
430
1976
3328
4351
4941
5040
4639
3780
2554
1086
-473
-1968
-3252
-4200
-4723
-4774
-4346
-3480
-2259
-799
753
2244
3521
4453
4943
4939
4443
3506
2225
732
-820
-2278
-3496
-4359
-4784
-4733
-4208
-3260
-1978
-484
1074
2542
3770
4632
5037
4943
4359
3345
2003
471
-1095
-2542
-3725
-4529
-4878
-4736
-4119
-3085
-1736
-202
1362
2801
3967
4741
5044
4843
4160
3062
1661
 98
-1470
-2887
-4012
-4733
-4980
-4729
-4004
-2878
-1461
106
1669
3071
4171
4857
5060
4759
3984
2812
1362
-221
-1780
-3159
-4220
-4859
-5012
-4664
-3850
-2651
-1185
400
1950
3307
4337
4936
5044
4653
3803
2585
1123
-433
-1928
-3214
-4167
-4698
-4757
-4337
-3477
-2259
-800
757
2258
3548
4494
5000
5011
4528
3600
2323
829
-729
-2196
-3428
-4305
-4745
-4707
-4193
-3253
-1975
-482
1077
2548
3781
4646
5055
4963
4378
3361
2016
478
-1095
-2549
-3739
-4550
-4902
-4763
-4146
-3110
-1756
-217
1353
2798
3970
4750
5056
4858
4175
3076
1671
102
-1472
-2897
-4030
-4759
-5014
-4770
-4052
-2930
-1515
 53
1620
3028
4136
4834
5050
4763
4002
2842
1401
-177
-1735
-3116
-4184
-4833
-4997
-4662
-3858
-2668
-1207
376
1927
3288
4323
4927
5040
4652
3802
2582
1115
-447
-1950
-3244
-4204
-4741
-4803
-4385
-3526
-2307
-846
713
2215
3506
4453
4958
4970
4486
3559
2284
792
-763
-2229
-3460
-4339
-4783
-4751
-4246
-3316
-2049
-567
984
2451
3684
4556
4977
4902
4340
3347
2028
517
-1031
-2462
-3634
-4435
-4788
-4661
-4066
-3059
-1734
-221
1333
2771
3948
4741
5067
4891
4229
3147
1755
191
-1385
-2818
-3964
-4710
-4983
-4757
-4053
-2940
-1529
 39
1612
3030
4151
4862
5091
4814
4060
2905
1464
-117
-1681
-3071
-4148
-4807
-4982
-4656
-3862
-2679
-1224
357
1907
3271
4312
4926
5051
4676
3842
2635
1180
-374
-1873
-3170
-4138
-4687
-4766
-4366
-3525
-2321
-871
682
2185
3484
4444
4965
4994
4528
3613
2346
856
-704
-2181
-3429
-4327
-4790
-4777
-4287
-3366
-2102
-616
944
2425
3674
4563
5000
4938
4384
3397
2079
566
-985
-2420
-3597
-4402
-4761
-4640
-4053
-3055
-1741
-237
1308
2742
3917
4711
5041
4871
4216
3142
1756
198
-1375
-2808
-3957
-4710
-4993
-4779
-4088
-2989
-1590
-30
1535
2952
4077
4796
5037
4775
4036
2895
1467
-103
-1660
-3046
-4126
-4791
-4977
-4667
-3891
-2725
-1286
285
1832
3200
4253
4883
5027
4671
3853
2658
1208
-348
-1856
-3168
-4156
-4726
-4826
-4444
-3616
-2419
-968
593
2110
3427
4409
4953
5002
4551
3648
2386
896
-669
-2153
-3410
-4317
-4791
-4787
-4306
-3393
-2135
-653
909
2395
3653
4553
5002
4952
4409
3429
2117
607
-944
-2382
-3564
-4377
-4745
-4635
-4060
-3073
-1770
-274
1266
2698
3876
4677
5019
4863
4226
3171
1806
269
-1283
-2699
-3838
-4590
-4881
-4685
-4018
-2946
-1572
-28
1529
2947
4080
4812
5069
4822
4095
2963
1538
-36
-1601
-3001
-4096
-4780
-4983
-4688
-3924
-2765
-1327
247
1803
3183
4249
4894
5052
4709
3901
2712
1265
-291
-1803
-3120
-4116
-4696
-4805
-4433
-3613
-2424
-978
581
2099
3420
4409
4964
5028
4593
3707
2462
987
-567
-2045
-3300
-4212
-4696
-4707
-4245
-3353
-2116
-652
895
2371
3625
4526
4979
4937
4402
3431
2123
615
-939
-2384
-3577
-4404
-4787
-4691
-4127
-3148
-1846
-346
1204
2651
3847
4669
5031
4894
4272
3228
1870
335
-1221
-2644
-3794
-4558
-4863
-4680
-4026
-2964
-1598
-59
1498
2918
4058
4800
5068
4835
4125
3008
1599
 40
-1513
-2906
-4000
-4688
-4904
-4626
-3881
-2742
-1321
240
1788
3166
4236
4888
5056
4724
3925
2742
1295
-269
-1795
-3134
-4153
-4755
-4880
-4515
-3695
-2497
-1040
532
2062
3395
4394
4959
5030
4603
3722
2479
1002
-557
-2045
-3313
-4239
-4736
-4756
-4298
-3404
-2159
-682
881
2374
3645
4564
5034
5006
4484
3522
2220
712
-846
-2301
-3506
-4348
-4746
-4666
-4115
-3146
-1850
-351
1202
2657
3863
4698
5073
4948
4336
3298
1941
403
-1160
-2593
-3755
-4532
-4851
-4680
-4035
-2980
-1616
-77
1483
2910
4057
4808
5085
4859
4153
3039
1630
 67
-1493
-2894
-3999
-4700
-4927
-4659
-3922
-2789
-1369
194
1748
3136
4218
4883
5065
4745
3958
2783
1341
-223
-1754
-3099
-4128
-4741
-4878
-4524
-3714
-2524
-1071
499
2031
3368
4376
4950
5033
4617
3746
2511
1040
-518
-2007
-3281
-4216
-4725
-4760
-4317
-3438
-2205
-737
819
2312
3586
4511
4991
4975
4466
3515
2223
723
-831
-2284
-3493
-4341
-4750
-4682
-4143
-3186
-1900
-409
1141
2596
3807
4648
5032
4916
4313
3283
1931
396
-1167
-2604
-3772
-4557
-4884
-4721
-4085
-3035
-1675
-136
1426
2857
4011
4770
5055
4838
4139
3031
1625
 63
-1497
-2901
-4010
-4716
-4950
-4689
-3959
-2832
-1419
140
1690
3076
4157
4824
5009
4694
3911
2742
1304
-256
-1786
-3132
-4165
-4783
-4928
-4583
-3782
-2600
-1154
413
1945
3287
4303
4888
4984
4581
3722
2497
1031
-526
-2018
-3299
-4245
-4767
-4815
-4384
-3514
-2287
-821
739
2238
3522
4460
4953
4951
4453
3513
2228
732
-821
-2276
-3490
-4346
-4764
-4706
-4179
-3232
-1954
-468
1081
2539
3758
4611
5008
4907
4318
3299
1955
422
-1144
-2589
-3769
-4569
-4912
-4765
-4141
-3100
-1743
-202
1369
2812
3981
4756
5056
4850
4159
3051
1641
 69
-1506
-2927
-4052
-4771
-5014
-4756
-4025
-2893
-1470
101
1666
3069
4170
4857
5062
4763
3992
2825
1380
-199
-1756
-3134
-4198
-4842
-5003
-4666
-3863
-2675
-1219
358
1903
3259
4291
4894
5008
4625
3783
2571
1114
-438
-1932
-3220
-4178
-4715
-4780
-4367
-3514
-2300
-842
716
2220
3516
4470
4984
5004
4528
3605
2332
838
-724
-2200
-3443
-4336
-4794
-4776
-4283
-3362
-2100
-619
934
2406
3645
4524
4951
4882
4323
3333
2015
504
-1044
-2477
-3651
-4455
-4812
-4691
-4102
-3101
-1783
-276
1272
2707
3882
4675
5005
4834
4179
3105
1720
163
-1409
-2841
-3991
-4745
-5029
-4816
-4127
-3030
-1632
-72
1495
2914
4041
4763
5005
4744
4005
2862
1430
-145
-1708
-3100
-4184
-4852
-5039
-4727
-3946
-2774
-1326
253
1809
3186
4245
4880
5027
4673
3855
2660
1211
-343
-1849
-3158
-4143
-4710
-4808
-4426
-3598
-2404
-957
599
2110
3423
4401
4943
4993
4547
3651
2399
920
-633
-2106
-3352
-4253
-4723
-4720
-4243
-3338
-2089
-615
937
2415
3668
4565
5013
4965
4424
3447
2136
625
-930
-2375
-3567
-4392
-4772
-4673
-4107
-3125
-1821
-319
1231
2677
3871
4689
5045
4901
4271
3220
1854
313
-1247
-2673
-3822
-4585
-4887
-4700
-4042
-2977
-1608
-68
1487
2904
4039
4774
5034
4793
4073
2948
1531
-34
-1593
-2988
-4080
-4762
-4967
-4675
-3917
-2765
-1335
232
1782
3159
4224
4871
5034
4698
3899
2719
1282
-267
-1774
-3090
-4088
-4672
-4788
-4425
-3614
-2432
-992
563
2080
3403
4397
4958
5028
4601
3720
2477
1001
-558
-2046
-3314
-4241
-4738
-4759
-4301
-3408
-2162
-685
877
2370
3641
4558
5027
4998
4475
3513
2211
705
-851
-2301
-3502
-4339
-4734
-4652
-4101
-3134
-1843
-351
1194
2639
3837
4663
5030
4900
4285
3247
1894
361
-1196
-2623
-3780
-4554
-4871
-4701
-4060
-3009
-1649
-112
1448
2877
4030
4788
5075
4859
4163
3056
1651
 89
-1473
-2880
-3993
-4702
-4938
-4678
-3947
-2817
-1400
164
1720
3110
4194
4861
5044
4723
3932
2753
1305
-266
-1803
-3156
-4192
-4811
-4953
-4602
-3792
-2600
-1143
434
1975
3323
4342
4927
5021
4614
3751
2521
1051
-507
-1999
-3277
-4217
-4732
-4772
-4333
-3457
-2226
-759
799
2294
3571
4501
4985
4974
4469
3522
2232
732
-826
-2287
-3506
-4368
-4790
-4734
-4206
-3255
-1971
-477
1079
2544
3768
4624
5023
4923
4334
3315
1970
435
-1133
-2581
-3765
-4570
-4919
-4777
-4158
-3122
-1767
-227
1344
2792
3968
4752
5063
4871
4194
3101
1703
140
-1428
-2848
-3976
-4703
-4956
-4713
-3997
-2880
-1472
 87
1644
3043
4143
4835
5047
4759
3998
2842
1405
-167
-1721
-3100
-4167
-4818
-4986
-4657
-3862
-2679
-1225
353
1901
3263
4302
4914
5037
4660
3823
2613
1155
-402
-1902
-3198
-4164
-4708
-4781
-4374
-3525
-2314
-858
699
2202
3499
4455
4971
4993
4520
3600
2329
838
-720
-2192
-3432
-4320
-4773
-4749
-4250
-3322
-2054
-567
991
2468
3711
4592
5021
4952
4392
3399
2077
561
-993
-2430
-3610
-4419
-4781
-4666
-4084
-3092
-1783
-282
1262
2698
3877
4677
5014
4852
4205
3138
1759
206
-1363
-2794
-3942
-4696
-4980
-4768
-4079
-2982
-1584
-23
1546
2968
4100
4828
5079
4828
4099
2968
1548
-17
-1573
-2965
-4055
-4737
-4944
-4657
-3904
-2758
-1332
233
1784
3163
4232
4884
5051
4718
3921
2742
1304
-247
-1756
-3074
-4074
-4661
-4779
-4415
-3604
-2421
-980
577
2096
3419
4412
4971
5037
4603
3714
2463
977
-591
-2085
-3360
-4290
-4790
-4811
-4351
-3455
-2206
-726
840
2336
3608
4526
4995
4966
4444
3482
2182
678
-875
-2323
-3523
-4359
-4755
-4675
-4129
-3167
-1882
-396
1144
2586
3782
4609
4981
4857
4249
3219
1873
346
-1206
-2630
-3785
-4560
-4879
-4712
-4074
-3026
-1668
-132
1429
2860
4015
4776
5064
4850
4153
3043
1633
 64
-1506
-2920
-4038
-4749
-4983
-4717
-3977
-2838
-1411
162
1724
3119
4207
4878
5063
4746
3958
2782
1337
-229
-1764
-3113
-4147
-4765
-4907
-4559
-3755
-2570
-1122
445
1977
3317
4330
4913
5008
4606
3750
2528
1068
-482
-1968
-3243
-4184
-4703
-4751
-4322
-3456
-2236
-778
774
2266
3544
4478
4969
4967
4471
3533
2249
752
-804
-2266
-3489
-4354
-4781
-4729
-4203
-3252
-1967
-470
1089
2556
3781
4637
5034
4931
4337
3314
1965
429
-1138
-2583
-3761
-4559
-4900
-4751
-4128
-3089
-1736
-201
1363
2799
3963
4734
5034
4831
4146
3046
1643
 78
-1492
-2911
-4038
-4762
-5011
-4762
-4039
-2914
-1497
 71
1636
3041
4145
4837
5046
4752
3984
2819
1375
-203
-1758
-3134
-4195
-4835
-4990
-4646
-3836
-2641
-1179
405
1954
3312
4343
4945
5056
4666
3818
2599
1134
-426
-1926
-3219
-4178
-4714
-4775
-4356
-3494
-2273
-808
755
2261
3557
4508
5016
5029
4545
3615
2335
838
-723
-2193
-3428
-4307
-4748
-4711
-4199
-3260
-1984
-492
1066
2537
3768
4634
5042
4951
4369
3356
2015
483
-1084
-2532
-3716
-4523
-4875
-4738
-4125
-3097
-1752
-221
1342
2782
3953
4735
5049
4861
4191
3106
1714
157
-1410
-2832
-3967
-4703
-4970
-4741
-4038
-2932
-1531
 26
1585
2990
4099
4800
5021
4740
3984
2829
1390
-187
-1747
-3131
-4204
-4856
-5025
-4693
-3893
-2705
-1245
338
1889
3251
4287
4893
5007
4621
3775
2557
1093
-466
-1966
-3258
-4219
-4757
-4822
-4408
-3553
-2338
-880
678
2181
3477
4431
4946
4968
4496
3579
2313
827
-725
-2190
-3424
-4306
-4755
-4728
-4228
-3301
-2034
-549
1007
2480
3718
4595
5018
4943
4377
3378
2048
523
-1042
-2493
-3685
-4504
-4869
-4747
-4148
-3131
-1794
-268
1294
2738
3916
4706
5029
4850
4186
3106
1717
160
-1408
-2833
-3970
-4710
-4978
-4749
-4046
-2938
-1535
 25
1587
2995
4107
4812
5038
4761
4010
2860
1428
-143
-1695
-3074
-4142
-4793
-4964
-4637
-3846
-2668
-1218
359
1908
3274
4318
4937
5067
4695
3861
2651
1189
-374
-1884
-3191
-4170
-4727
-4809
-4410
-3565
-2356
-898
664
2174
3477
4439
4961
4988
4519
3602
2334
846
-708
-2176
-3410
-4293
-4741
-4712
-4210
-3282
-2015
-531
1024
2495
3733
4609
5034
4962
4400
3408
2088
576
-973
-2406
-3580
-4384
-4742
-4623
-4038
-3043
-1732
-230
1315
2750
3928
4727
5063
4900
4252
3183
1802
248
-1324
-2756
-3907
-4662
-4948
-4737
-4050
-2956
-1561
 -5
1557
2971
4093
4810
5049
4786
4047
2907
1479
-90
-1647
-3035
-4115
-4782
-4971
-4663
-3889
-2726
-1288
282
1830
3201
4256
4889
5038
4686
3873
2683
1238
-313
-1817
-3124
-4109
-4678
-4777
-4396
-3570
-2377
-930
626
2139
3453
4434
4980
5035
4593
3700
2450
970
-587
-2069
-3328
-4244
-4729
-4740
-4274
-3375
-2128
-654
903
2387
3646
4552
5009
4971
4440
3473
2169
663
-890
-2335
-3530
-4360
-4746
-4655
-4094
-3118
-1818
-319
1231
2680
3879
4703
5066
4929
4305
3256
1890
346
-1221
-2655
-3815
-4589
-4903
-4727
-4077
-3017
-1649
-107
1455
2881
4027
4775
5049
4819
4110
2994
1583
 20
-1537
-2936
-4036
-4730
-4951
-4677
-3934
-2796
-1373
192
1745
3131
4209
4870
5047
4724
3934
2758
1318
-242
-1766
-3103
-4125
-4730
-4861
-4505
-3694
-2506
-1057
509
2035
3368
4370
4941
5021
4603
3731
2496
1023
-536
-2028
-3304
-4242
-4754
-4790
-4347
-3466
-2230
-758
805
2303
3584
4515
4999
4987
4478
3527
2232
726
-837
-2301
-3522
-4382
-4800
-4737
-4200
-3239
-1945
-445
1116
2581
3801
4650
5041
4933
4336
3311
1964
432
-1130
-2568
-3740
-4532
-4868
-4716
-4091
-3053
-1701
-170
1389
2821
3979
4744
5039
4831
4141
3038
1633
 68
-1501
-2918
-4041
-4759
-5004
-4750
-4023
-2895
-1477
 90
1651
3050
4146
4829
5029
4726
3949
2778
1329
-250
-1804
-3177
-4231
-4863
-5009
-4656
-3838
-2635
-1168
418
1968
3324
4352
4948
5054
4660
3807
2585
1118
-443
-1944
-3238
-4199
-4737
-4801
-4386
-3530
-2313
-853
706
2208
3501
4451
4959
4972
4489
3560
2282
786
-774
-2243
-3475
-4353
-4792
-4752
-4238
-3297
-2018
-525
1035
2506
3739
4605
5014
4925
4345
3335
1997
468
-1097
-2542
-3727
-4534
-4888
-4753
-4143
-3116
-1771
-238
1328
2774
3952
4742
5063
4882
4216
3133
1742
182
-1389
-2816
-3956
-4696
-4964
-4735
-4030
-2919
-1511
 53
1620
3032
4147
4852
5076
4796
4040
2883
1443
-136
-1697
-3083
-4158
-4814
-4987
-4660
-3867
-2684
-1230
349
1899
3264
4306
4921
5048
4675
3842
2635
1178
-378
-1881
-3182
-4154
-4706
-4784
-4382
-3535
-2323
-864
699
2211
3517
4483
5007
5036
4568
3650
2379
885
-678
-2154
-3399
-4291
-4747
-4725
-4226
-3297
-2028
-540
1020
2496
3738
4617
5042
4969
4405
3408
2082
563
-994
-2433
-3614
-4422
-4781
-4660
-4070
-3067
-1747
-237
1314
2750
3926
4720
5048
4876
4219
3143
1756
198
-1375
-2807
-3955
-4706
-4987
-4771
-4078
-2976
-1575
-11
1558
2978
4106
4827
5068
4805
4065
2921
1490
-83
-1644
-3035
-4120
-4790
-4981
-4673
-3896
-2725
-1277
303
1859
3234
4288
4917
5056
4693
3867
2665
1210
-347
-1852
-3157
-4135
-4693
-4780
-4388
-3552
-2352
-904
648
2150
3449
4410
4935
4967
4506
3597
2336
852
-703
-2175
-3419
-4315
-4778
-4765
-4277
-3359
-2098
-615
945
2426
3677
4570
5010
4953
4403
3418
2100
586
-970
-2413
-3600
-4417
-4787
-4679
-4102
-3111
-1801
-297
1252
2693
3877
4682
5024
4864
4219
3152
1772
217
-1354
-2787
-3938
-4692
-4977
-4765
-4077
-2980
-1583
-24
1540
2956
4081
4800
5041
4779
4041
2900
1472
-100
-1659
-3051
-4136
-4809
-5003
-4702
-3933
-2774
-1337
234
1785
3163
4227
4873
5034
4696
3895
2713
1273
-277
-1785
-3101
-4097
-4679
-4790
-4420
-3602
-2412
-966
594
2113
3435
4423
4976
5035
4595
3701
2448
966
-592
-2073
-3327
-4236
-4713
-4715
-4243
-3341
-2094
-622
929
2407
3659
4556
5004
4956
4416
3441
2131
623
-930
-2372
-3561
-4383
-4762
-4663
-4097
-3117
-1816
-318
1230
2674
3867
4686
5045
4904
4277
3228
1863
320
-1243
-2674
-3830
-4600
-4909
-4728
-4075
-3011
-1640
-96
1467
2893
4036
4781
5049
4814
4099
2976
1561
 -4
-1562
-2958
-4052
-4738
-4948
-4662
-3908
-2760
-1330
239
1792
3174
4245
4896
5061
4725
3922
2737
1290
-269
-1787
-3114
-4121
-4714
-4835
-4473
-3660
-2474
-1029
533
2057
3386
4385
4949
5020
4591
3708
2462
983
-578
-2066
-3333
-4258
-4752
-4770
-4310
-3415
-2170
-694
866
2355
3621
4534
4999
4968
4443
3480
2178
672
-883
-2334
-3536
-4374
-4771
-4689
-4139
-3171
-1877
-380
1172
2625
3831
4665
5039
4912
4297
3255
1893
349
-1220
-2660
-3827
-4609
-4931
-4760
-4115
-3057
-1689
-144
1423
2855
4008
4762
5041
4816
4110
2994
1584
 20
-1538
-2937
-4037
-4730
-4949
-4672
-3927
-2785
-1360
208
1763
3149
4226
4885
5060
4732
3938
2758
1313
-250
-1776
-3116
-4136
-4740
-4868
-4507
-3691
-2498
-1044
524
2053
3385
4386
4953
5028
4606
3731
2493
1020
-536
-2023
-3292
-4222
-4726
-4755
-4308
-3425
-2190
-723
832
2321
3590
4510
4983
4962
4447
3493
2199
699
-853
-2303
-3506
-4348
-4749
-4673
-4129
-3167
-1879
-388
1159
2609
3813
4647
5023
4903
4296
3265
1916
385
-1171
-2600
-3760
-4538
-4860
-4694
-4058
-3010
-1654
-121
1435
2860
4008
4762
5044
4825
4125
3015
1608
 44
-1519
-2925
-4034
-4736
-4962
-4691
-3948
-2808
-1381
189
1748
3140
4224
4891
5074
4754
3964
2785
1338
-230
-1765
-3115
-4147
-4762
-4899
-4546
-3735
-2544
-1091
479
2011
3349
4355
4929
5012
4596
3726
2493
1024
-532
-2019
-3291
-4225
-4733
-4768
-4325
-3445
-2212
-743
816
2312
3590
4520
5005
4993
4485
3534
2238
731
-833
-2297
-3518
-4377
-4794
-4731
-4194
-3234
-1941
-440
1123
2591
3814
4666
5057
4945
4342
3310
1954
412
-1159
-2604
-3780
-4574
-4910
-4756
-4128
-3086
-1732
-198
1363
2797
3958
4728
5028
4828
4146
3053
1656
 97
-1468
-2885
-4012
-4739
-4994
-4753
-4039
-2922
-1512
 52
1615
3020
4127
4823
5037
4747
3981
2816
1370
-212
-1772
-3155
-4221
-4865
-5023
-4679
-3869
-2672
-1207
378
1928
3286
4316
4915
5023
4632
3782
2564
1102
-454
-1949
-3236
-4191
-4724
-4785
-4368
-3512
-2297
-841
713
2211
3500
4448
4955
4970
4491
3568
2297
808
-746
-2210
-3441
-4318
-4761
-4726
-4219
-3285
-2013
-527
1028
2497
3728
4596
5009
4924
4348
3341
2006
477
-1089
-2538
-3727
-4540
-4899
-4770
-4164
-3141
-1798
-266
1300
2747
3926
4717
5038
4857
4191
3107
1715
155
-1415
-2840
-3979
-4718
-4984
-4754
-4048
-2938
-1531
 32
1597
3008
4122
4828
5055
4778
4025
2873
1436
-140
-1700
-3087
-4163
-4823
-4999
-4677
-3887
-2708
-1256
321
1870
3233
4274
4888
5014
4639
3805
2598
1142
-414
-1916
-3215
-4186
-4737
-4816
-4416
-3573
-2367
-914
642
2147
3448
4410
4933
4963
4497
3583
2317
827
-732
-2207
-3452
-4346
-4804
-4785
-4290
-3365
-2097
-608
954
2435
3683
4569
5001
4933
4374
3380
2056
538
-1017
-2454
-3632
-4436
-4792
-4668
-4076
-3073
-1753
-244
1308
2747
3927
4726
5059
4891
4237
3163
1776
217
-1356
-2789
-3939
-4690
-4970
-4752
-4057
-2953
-1550
 12
1580
2995
4115
4827
5058
4783
4031
2877
1437
-144
-1709
-3101
-4181
-4843
-5021
-4698
-3906
-2724
-1269
313
1866
3234
4280
4900
5031
4663
3834
2631
1178
-375
-1876
-3176
-4151
-4707
-4793
-4401
-3566
-2367
-919
635
2142
3447
4416
4948
4989
4534
3631
2373
889
-669
-2145
-3395
-4297
-4767
-4760
-4276
-3362
-2103
-621
937
2418
3668
4559
4997
4938
4386
3398
2078
561
-997
-2441
-3628
-4444
-4812
-4699
-4117
-3120
-1802
-290
1268
2717
3909
4722
5070
4915
4274
3211
1835
286
-1278
-2703
-3848
-4602
-4891
-4690
-4017
-2938
-1557
-10
1548
2963
4089
4813
5058
4799
4063
2922
1491
-83
-1646
-3041
-4128
-4802
-4995
-4691
-3920
-2757
-1318
255
1806
3181
4242
4881
5036
4691
3885
2700
1260
-288
-1790
-3097
-4083
-4654
-4757
-4380
-3558
-2367
-923
632
2143
3456
4433
4974
5021
4569
3666
2404
916
-647
-2128
-3381
-4286
-4757
-4752
-4272
-3363
-2110
-634
920
2398
3648
4541
4984
4931
4387
3408
2097
588
-963
-2402
-3587
-4405
-4779
-4675
-4106
-3123
-1820
-322
1225
2667
3857
4671
5025
4880
4250
3200
1835
297
-1260
-2681
-3825
-4581
-4875
-4681
-4015
-2943
-1567
-22
1537
2955
4089
4822
5078
4833
4109
2980
1562
 -4
-1560
-2953
-4043
-4725
-4933
-4645
-3891
-2744
-1317
249
1799
3178
4246
4894
5059
4722
3922
2739
1298
-254
-1764
-3082
-4080
-4664
-4779
-4412
-3599
-2414
-973
581
2095
3412
4397
4948
5007
4568
3677
2428
948
-609
-2090
-3347
-4260
-4742
-4748
-4278
-3375
-2125
-648
910
2395
3654
4558
5014
4974
4443
3475
2172
668
-884
-2329
-3524
-4355
-4745
-4659
-4105
-3137
-1846
-356
1187
2630
3825
4648
5013
4882
4265
3226
1871
338
-1219
-2647
-3802
-4575
-4889
-4716
-4071
-3016
-1653
-114
1446
2872
4020
4772
5050
4825
4119
3003
1591
 25
-1537
-2941
-4048
-4748
-4972
-4699
-3954
-2811
-1381
194
1757
3153
4239
4907
5089
4768
3977
2799
1353
-212
-1742
-3085
-4111
-4719
-4852
-4495
-3682
-2492
-1041
525
2053
3385
4387
4957
5036
4618
3746
2512
1041
-515
-2002
-3275
-4210
-4719
-4754
-4312
-3433
-2201
-733
825
2317
3591
4515
4991
4969
4452
3491
2188
676
-888
-2350
-3563
-4412
-4816
-4738
-4187
-3215
-1913
-406
1157
2621
3837
4678
5058
4935
4323
3283
1923
382
-1185
-2622
-3787
-4567
-4888
-4719
-4076
-3022
-1659
-120
1441
2870
4020
4774
5055
4833
4129
3015
1603
 34
-1533
-2944
-4058
-4765
-4996
-4729
-3991
-2854
-1430
139
1700
3094
4183
4857
5048
4738
3958
2790
1352
-209
-1740
-3089
-4123
-4744
-4889
-4544
-3742
-2559
-1111
458
1992
3334
4349
4933
5026
4621
3760
2534
1070
-484
-1972
-3247
-4186
-4702
-4744
-4310
-3439
-2215
-754
799
2290
3567
4498
4987
4983
4487
3548
2266
770
-785
-2246
-3467
-4333
-4759
-4708
-4182
-3232
-1947
-451
1108
2574
3798
4652
5046
4940
4342
3314
1962
422
-1149
-2595
-3773
-4569
-4907
-4753
-4124
-3081
-1724
-186
1378
2813
3974
4742
5038
4832
4145
3046
1646
 86
-1476
-2887
-4004
-4720
-4962
-4708
-3983
-2858
-1443
121
1680
3079
4177
4863
5067
4768
3996
2827
1379
-203
-1761
-3140
-4202
-4842
-4997
-4650
-3837
-2637
-1170
417
1967
3324
4352
4946
5048
4649
3790
2562
1092
-469
-1967
-3253
-4203
-4727
-4777
-4347
-3477
-2250
-784
777
2279
3566
4508
5006
5009
4517
3580
2297
800
-759
-2225
-3453
-4324
-4758
-4713
-4194
-3250
-1970
-478
1079
2545
3771
4630
5031
4934
4347
3330
1988
457
-1106
-2549
-3728
-4529
-4874
-4732
-4115
-3084
-1738
-209
1350
2785
3949
4724
5028
4832
4153
3060
1663
102
-1465
-2884
-4012
-4739
-4993
-4749
-4031
-2910
-1496
 70
1634
3038
4141
4832
5039
4741
3968
2797
1346
-239
-1800
-3181
-4243
-4881
-5031
-4680
-3861
-2657
-1187
402
1952
3308
4332
4923
5021
4619
3758
2529
1058
-504
-2001
-3287
-4238
-4764
-4815
-4387
-3520
-2296
-831
729
2229
3518
4461
4962
4969
4481
3550
2272
780
-773
-2233
-3455
-4320
-4746
-4695
-4171
-3222
-1939
-447
1108
2570
3788
4638
5029
4920
4323
3297
1948
413
-1151
-2590
-3763
-4554
-4888
-4734
-4106
-3064
-1710
-176
1386
2820
3979
4746
5042
4834
4145
3042
1637
 72
-1497
-2914
-4037
-4756
-5001
-4748
-4021
-2894
-1477
 88
1648
3045
4139
4818
5015
4708
3928
2753
1302
-280
-1836
-3210
-4265
-4897
-5043
-4689
-3871
-2669
-1203
382
1927
3279
4302
4893
4994
4596
3742
2519
1056
-499
-1991
-3272
-4219
-4743
-4793
-4366
-3501
-2279
-818
736
2231
3513
4450
4945
4946
4454
3518
2238
743
-812
-2274
-3499
-4368
-4799
-4754
-4235
-3293
-2015
-526
1028
2492
3717
4577
4981
4888
4306
3295
1957
430
-1132
-2574
-3754
-4557
-4905
-4765
-4149
-3117
-1767
-232
1335
2779
3953
4736
5048
4857
4180
3087
1686
120
-1454
-2880
-4016
-4750
-5011
-4774
-4062
-2947
-1539
 23
1583
2986
4090
4783
4995
4704
3940
2778
1336
-240
-1795
-3173
-4235
-4877
-5034
-4691
-3882
-2687
-1223
362
1913
3274
4308
4913
5027
4641
3796
2581
1121
-434
-1929
-3218
-4175
-4710
-4773
-4359
-3505
-2293
-840
712
2206
3492
4435
4939
4950
4467
3541
2268
778
-776
-2240
-3469
-4344
-4784
-4747
-4236
-3300
-2025
-536
1021
2492
3726
4596
5011
4928
4354
3348
2014
486
-1081
-2531
-3722
-4537
-4898
-4771
-4168
-3146
-1804
-273
1293
2740
3919
4711
5033
4853
4187
3105
1714
155
-1413
-2836
-3971
-4706
-4968
-4733
-4024
-2910
-1501
 62
1626
3034
4145
4846
5068
4787
4033
2881
1448
-123
-1675
-3054
-4125
-4781
-4959
-4640
-3856
-2684
-1239
335
1882
3245
4289
4906
5037
4667
3836
2632
1177
-379
-1881
-3182
-4155
-4708
-4789
-4389
-3545
-2337
-880
681
2191
3495
4459
4981
5009
4539
3620
2347
853
-709
-2184
-3427
-4317
-4770
-4745
-4244
-3315
-2045
-558
1001
2475
3715
4592
5016
4942
4379
3386
2065
553
-994
-2424
-3593
-4392
-4745
-4622
-4034
-3037
-1725
-225
1317
2749
3923
4718
5051
4885
4236
3169
1790
239
-1328
-2756
-3902
-4653
-4934
-4719
-4028
-2929
-1531
 28
1594
3011
4136
4855
5095
4832
4093
2950
1519
-55
-1617
-3009
-4093
-4762
-4952
-4643
-3867
-2700
-1257
319
1872
3248
4307
4944
5094
4743
3928
2735
1287
-269
-1777
-3088
-4077
-4648
-4749
-4368
-3541
-2346
-898
661
2176
3491
4472
5016
5067
4619
3720
2463
977
-586
-2071
-3331
-4245
-4726
-4730
-4257
-3350
-2097
-616
943
2428
3685
4586
5035
4988
4448
3471
2160
651
-902
-2345
-3533
-4355
-4732
-4631
-4063
-3082
-1780
-281
1265
2706
3893
4705
5055
4906
4271
3215
1847
304
-1257
-2682
-3830
-4590
-4890
-4700
-4040
-2973
-1602
-61
1495
2913
4047
4783
5044
4804
4087
2966
1554
 -5
-1556
-2945
-4033
-4714
-4921
-4635
-3884
-2740
-1316
246
1793
3168
4233
4880
5043
4707
3906
2726
1287
-264
-1771
-3087
-4083
-4666
-4781
-4415
-3603
-2421
-983
569
2081
3396
4381
4931
4991
4554
3665
2418
941
-614
-2091
-3346
-4257
-4738
-4747
-4281
-3385
-2142
-672
881
2365
3626
4536
4999
4967
4443
3482
2182
680
-872
-2319
-3519
-4356
-4752
-4672
-4125
-3161
-1873
-384
1158
2602
3800
4625
4993
4863
4247
3208
1851
314
-1246
-2677
-3836
-4612
-4929
-4757
-4113
-3058
-1695
-155
1406
2836
3988
4745
5030
4813
4115
3007
1601
 37
-1527
-2936
-4050
-4759
-4994
-4732
-3999
-2868
-1449
116
1673
3067
4156
4832
5026
4717
3936
2762
1312
-267
-1819
-3189
-4240
-4867
-5008
-4651
-3829
-2624
-1156
429
1973
3323
4342
4928
5023
4618
3756
2527
1057
-503
-2000
-3284
-4233
-4757
-4807
-4377
-3509
-2283
-819
739
2237
3521
4460
4955
4956
4462
3525
2241
742
-817
-2283
-3509
-4379
-4809
-4760
-4235
-3284
-1996
-497
1066
2539
3769
4629
5031
4932
4342
3321
1973
437
-1133
-2580
-3762
-4565
-4911
-4769
-4152
-3120
-1773
-244
1315
2750
3913
4688
4994
4800
4125
3039
1649
 97
-1463
-2876
-4002
-4730
-4989
-4755
-4051
-2946
-1549
  2
1555
2953
4057
4756
4978
4701
3952
2805
1377
-189
-1738
-3114
-4179
-4829
-4999
-4673
-3882
-2704
-1255
322
1871
3236
4281
4900
5031
4660
3828
2621
1163
-396
-1901
-3205
-4179
-4733
-4814
-4413
-3569
-2359
-902
660
2171
3477
4445
4973
5009
4547
3637
2374
887
-672
-2147
-3394
-4292
-4756
-4744
-4257
-3339
-2078
-595
964
2444
3693
4583
5021
4961
4410
3425
2107
594
-959
-2398
-3580
-4393
-4759
-4647
-4067
-3075
-1764
-260
1290
2732
3919
4728
5074
4920
4281
3221
1848
302
-1261
-2687
-3835
-4593
-4889
-4694
-4027
-2952
-1574
-26
1537
2959
4095
4830
5088
4843
4117
2985
1561
-12
-1576
-2976
-4071
-4756
-4962
-4672
-3913
-2760
-1329
240
1792
3172
4241
4892
5059
4728
3931
2751
1308
-253
-1777
-3114
-4134
-4737
-4866
-4506
-3691
-2499
-1046
523
2053
3390
4396
4970
5054
4638
3768
2532
1058
-503
-1998
-3279
-4222
-4740
-4782
-4346
-3471
-2239
-769
793
2293
3577
4513
5004
4998
4496
3550
2259
754
-809
-2276
-3502
-4369
-4796
-4742
-4213
-3259
-1970
-471
1091
2561
3789
4648
5049
4951
4362
3343
1999
466
-1101
-2547
-3729
-4532
-4879
-4738
-4122
-3090
-1743
-212
1349
2786
3951
4725
5030
4832
4153
3059
1661
101
-1466
-2884
-4011
-4737
-4990
-4747
-4030
-2911
-1499
 65
1629
3036
4144
4843
5061
4776
4017
2859
1418
-160
-1719
-3105
-4178
-4832
-5004
-4676
-3880
-2695
-1238
345
1899
3268
4314
4933
5063
4694
3863
2658
1204
-351
-1852
-3152
-4125
-4679
-4763
-4367
-3529
-2327
-879
674
2177
3475
4436
4959
4990
4526
3614
2350
864
-692
-2165
-3407
-4301
-4763
-4750
-4265
-3352
-2097
-620
933
2410
3660
4552
4996
4942
4397
3418
2105
594
-958
-2399
-3585
-4402
-4776
-4671
-4100
-3116
-1812
-314
1231
2670
3855
4664
5011
4860
4224
3168
1800
258
-1301
-2724
-3871
-4631
-4929
-4740
-4079
-3012
-1641
-100
1458
2877
4014
4753
5018
4780
4065
2943
1529
-36
-1594
-2990
-4085
-4770
-4979
-4691
-3936
-2788
-1360
204
1751
3126
4190
4835
4996
4659
3858
2676
1236
-315
-1825
-3144
-4146
-4734
-4854
-4493
-3685
-2505
-1066
490
2009
3336
4335
4902
4980
4559
3684
2447
974
-584
-2072
-3343
-4276
-4780
-4810
-4362
-3478
-2241
-769
791
2285
3562
4489
4971
4959
4453
3507
2220
724
-826
-2278
-3486
-4335
-4746
-4682
-4148
-3194
-1911
-422
1129
2587
3804
4653
5047
4943
4351
3331
1987
456
-1106
-2547
-3723
-4521
-4864
-4719
-4101
-3069
-1722
-193
1366
2799
3961
4732
5033
4833
4151
3055
1658
 98
-1465
-2879
-4000
-4719
-4965
-4715
-3993
-2871
-1458
104
1663
3061
4159
4846
5052
4756
3987
2822
1376
-203
-1762
-3144
-4211
-4859
-5024
-4688
-3886
-2696
-1236
348
1899
3263
4301
4911
5030
4649
3808
2595
1135
-421
-1920
-3213
-4175
-4715
-4783
-4371
-3519
-2305
-848
709
2210
3504
4455
4966
4983
4505
3581
2309
818
-738
-2205
-3439
-4320
-4766
-4734
-4229
-3297
-2026
-538
1020
2494
3732
4609
5032
4957
4393
3396
2069
547
-1015
-2464
-3656
-4474
-4842
-4723
-4128
-3115
-1781
-256
1308
2756
3939
4738
5069
4899
4243
3168
1781
224
-1348
-2780
-3927
-4677
-4956
-4737
-4043
-2941
-1540
 21
1588
3003
4124
4838
5073
4803
4057
2908
1472
-106
-1670
-3064
-4148
-4816
-5000
-4684
-3898
-2719
-1266
318
1875
3249
4302
4928
5066
4701
3874
2670
1213
-347
-1856
-3164
-4145
-4706
-4795
-4403
-3566
-2364
-911
647
2156
3461
4428
4957
4992
4529
3618
2353
864
-695
-2171
-3417
-4313
-4774
-4759
-4267
-3346
-2081
-595
966
2448
3698
4589
5026
4965
4413
3425
2105
590
-966
-2409
-3594
-4410
-4779
-4669
-4092
-3101
-1790
-285
1266
2709
3897
4707
5054
4900
4261
3201
1829
284
-1276
-2699
-3842
-4595
-4886
-4687
-4017
-2941
-1562
-17
1542
2958
4088
4816
5066
4814
4082
2946
1519
-53
-1616
-3012
-4103
-4781
-4980
-4681
-3914
-2755
-1318
254
1806
3183
4246
4889
5046
4704
3898
2713
1271
-280
-1786
-3098
-4090
-4667
-4776
-4405
-3588
-2401
-959
596
2110
3429
4417
4971
5035
4602
3717
2472
994
-564
-2048
-3312
-4234
-4726
-4742
-4281
-3385
-2139
-663
897
2385
3650
4562
5024
4988
4460
3492
2187
679
-877
-2326
-3525
-4359
-4751
-4666
-4112
-3142
-1849
-356
1190
2635
3832
4657
5024
4894
4278
3241
1888
356
-1199
-2624
-3778
-4548
-4862
-4688
-4044
-2991
-1630
-94
1463
2888
4035
4787
5067
4845
4142
3030
1620
 54
-1510
-2918
-4029
-4732
-4960
-4691
-3950
-2812
-1388
180
1738
3128
4210
4876
5057
4735
3944
2765
1317
-252
-1788
-3138
-4171
-4787
-4927
-4575
-3765
-2575
-1120
453
1989
3332
4346
4927
5018
4610
3746
2517
1050
-506
-1997
-3276
-4219
-4738
-4786
-4357
-3492
-2272
-816
734
2223
3498
4429
4919
4917
4422
3486
2207
716
-835
-2291
-3508
-4368
-4789
-4732
-4202
-3248
-1960
-462
1097
2564
3786
4638
5031
4923
4324
3296
1943
404
-1166
-2610
-3788
-4583
-4920
-4766
-4137
-3093
-1734
-195
1372
2811
3976
4747
5046
4842
4155
3055
1651
 86
-1482
-2899
-4024
-4744
-4989
-4737
-4011
-2884
-1466
101
1663
3064
4162
4847
5050
4749
3974
2804
1356
-224
-1781
-3158
-4218
-4857
-5013
-4669
-3860
-2667
-1208
372
1916
3270
4297
4896
5006
4618
3773
2559
1102
-450
-1942
-3226
-4179
-4711
-4770
-4351
-3492
-2275
-816
740
2239
3527
4472
4975
4984
4497
3565
2286
790
-769
-2237
-3469
-4346
-4785
-4746
-4233
-3294
-2018
-529
1027
2495
3725
4590
5000
4913
4337
3331
1999
476
-1083
-2525
-3705
-4510
-4862
-4727
-4118
-3093
-1751
-223
1338
2778
3950
4735
5051
4865
4197
3112
1720
161
-1408
-2832
-3969
-4707
-4974
-4744
-4039
-2930
-1525
 36
1599
3008
4121
4825
5049
4770
4015
2861
1422
-155
-1714
-3100
-4174
-4830
-5002
-4674
-3879
-2694
-1238
345
1897
3264
4307
4922
5048
4672
3836
2626
1168
-391
-1894
-3194
-4165
-4714
-4790
-4386
-3538
-2326
-867
696
2207
3512
4477
5002
5033
4565
3649
2379
885
-679
-2158
-3406
-4303
-4764
-4746
-4250
-3323
-2051
-559
1008
2492
3743
4630
5062
4993
4429
3430
2100
574
-990
-2437
-3624
-4437
-4800
-4679
-4087
-3080
-1755
-238
1319
2763
3945
4744
5076
4905
4249
3173
1785
225
-1350
-2784
-3934
-4688
-4971
-4757
-4066
-2968
-1569
-10
1555
2971
4094
4812
5051
4788
4048
2906
1477
-96
-1657
-3049
-4133
-4802
-4991
-4680
-3900
-2728
-1281
296
1848
3218
4269
4895
5034
4672
3847
2646
1193
-364
-1871
-3179
-4161
-4725
-4818
-4430
-3598
-2399
-949
609
2121
3432
4407
4946
4994
4546
3648
2394
914
-641
-2117
-3367
-4271
-4744
-4741
-4262
-3351
-2094
-613
946
2430
3685
4584
5031
4981
4439
3460
2146
633
-925
-2371
-3564
-4388
-4767
-4667
-4097
-3112
-1804
-299
1255
2704
3900
4718
5073
4927
4293
3237
1865
317
-1248
-2678
-3830
-4591
-4890
-4696
-4030
-2955
-1576
-27
1536
2959
4096
4831
5089
4844
4120
2991
1572
  6
-1548
-2939
-4028
-4708
-4915
-4628
-3877
-2734
-1313
246
1788
3158
4219
4863
5024
4688
3890
2712
1277
-269
-1772
-3085
-4080
-4663
-4778
-4414
-3603
-2421
-983
571
2086
3407
4399
4958
5027
4598
3717
2474
999
-558
-2043
-3308
-4231
-4726
-4745
-4286
-3393
-2151
-678
878
2365
3629
4541
5005
4974
4450
3488
2187
683
-872
-2322
-3524
-4364
-4762
-4683
-4134
-3169
-1877
-383
1167
2618
3824
4658
5033
4910
4300
3265
1910
374
-1187
-2620
-3783
-4563
-4885
-4718
-4080
-3030
-1672
-138
1419
2844
3991
4744
5025
4805
4106
2999
1596
 38
-1517
-2916
-4020
-4721
-4949
-4683
-3948
-2815
-1396
169
1726
3117
4202
4871
5055
4737
3950
2773
1328
-238
-1772
-3120
-4152
-4767
-4905
-4553
-3742
-2553
-1100
471
2004
3342
4349
4922
5004
4587
3715
2479
1007
-551
-2039
-3312
-4247
-4754
-4787
-4341
-3458
-2222
-749
813
2312
3593
4524
5010
4998
4491
3540
2243
733
-835
-2307
-3536
-4405
-4832
-4777
-4247
-3291
-2002
-504
1052
2512
3726
4567
4947
4828
4219
3185
1831
296
-1263
-2692
-3848
-4620
-4932
-4754
-4105
-3044
-1676
-133
1430
2859
4009
4763
5043
4821
4119
3010
1605
 47
-1509
-2907
-4010
-4709
-4937
-4669
-3934
-2801
-1383
181
1735
3124
4207
4874
5057
4738
3950
2774
1330
-236
-1770
-3119
-4151
-4766
-4904
-4551
-3740
-2548
-1093
480
2016
3358
4370
4949
5036
4623
3754
2519
1046
-514
-2008
-3288
-4230
-4745
-4785
-4346
-3470
-2239
-772
786
2281
3558
4486
4969
4956
4447
3497
2205
703
-853
-2309
-3521
-4371
-4782
-4715
-4178
-3222
-1937
-446
1104
2559
3770
4612
4997
4882
4280
3252
1902
367
-1196
-2634
-3805
-4595
-4928
-4773
-4145
-3103
-1747
-212
1352
2788
3950
4720
5019
4816
4130
3031
1630
 68
-1498
-2913
-4034
-4751
-4994
-4739
-4011
-2882
-1463
104
1666
3065
4161
4842
5040
4736
3961
2795
1357
-206
-1740
-3092
-4132
-4756
-4905
-4563
-3763
-2580
-1131
439
1975
3320
4337
4922
5016
4611
3748
2518
1047
-514
-2010
-3292
-4239
-4759
-4804
-4370
-3496
-2267
-799
761
2259
3541
4475
4964
4958
4457
3513
2225
725
-833
-2294
-3514
-4375
-4796
-4737
-4206
-3251
-1963
-467
1090
2554
3774
4625
5018
4913
4318
3295
1949
414
-1152
-2597
-3777
-4579
-4924
-4781
-4163
-3130
-1780
-247
1317
2758
3928
4709
5020
4830
4157
3069
1677
119
-1446
-2864
-3993
-4721
-4978
-4738
-4025
-2910
-1503
 57
1614
3014
4115
4806
5017
4727
3965
2807
1370
-200
-1749
-3120
-4178
-4818
-4976
-4638
-3836
-2650
-1198
376
1915
3267
4294
4894
5007
4622
3779
2567
1109
-444
-1940
-3230
-4190
-4728
-4794
-4379
-3523
-2306
-843
719
2226
3524
4479
4992
5009
4528
3601
2323
827
-734
-2203
-3436
-4312
-4750
-4708
-4190
-3246
-1965
-470
1090
2562
3793
4659
5068
4979
4400
3390
2053
525
-1040
-2488
-3675
-4489
-4850
-4724
-4124
-3108
-1772
-248
1312
2754
3932
4723
5048
4872
4213
3135
1748
192
-1377
-2803
-3943
-4685
-4954
-4726
-4020
-2909
-1500
 66
1634
3046
4159
4861
5080
4793
4029
2865
1418
-165
-1729
-3115
-4185
-4834
-4998
-4662
-3858
-2668
-1209
371
1918
3274
4304
4906
5018
4632
3788
2574
1115
-439
-1936
-3226
-4188
-4728
-4797
-4387
-3537
-2325
-869
689
2195
3495
4456
4978
5007
4540
3627
2361
872
-687
-2161
-3405
-4300
-4760
-4743
-4249
-3326
-2061
-575
984
2461
3706
4589
5018
4949
4388
3394
2070
553
-1001
-2437
-3613
-4415
-4769
-4642
-4047
-3041
-1719
-207
1346
2786
3965
4764
5096
4927
4272
3198
1812
254
-1319
-2751
-3898
-4648
-4928
-4710
-4017
-2916
-1516
 43
1607
3020
4138
4849
5080
4807
4057
2905
1466
-114
-1680
-3074
-4157
-4824
-5007
-4689
-3902
-2723
-1270
312
1867
3238
4288
4912
5047
4682
3855
2653
1200
-355
-1859
-3161
-4138
-4697
-4784
-4392
-3556
-2355
-904
654
2164
3474
4447
4984
5029
4577
3675
2419
936
-620
-2096
-3345
-4248
-4720
-4718
-4243
-3339
-2091
-619
933
2411
3663
4560
5008
4959
4417
3440
2128
617
-938
-2381
-3570
-4391
-4765
-4661
-4088
-3100
-1790
-285
1268
2716
3909
4724
5076
4928
4292
3235
1864
317
-1247
-2675
-3826
-4587
-4885
-4693
-4028
-2956
-1579
-32
1529
2950
4087
4822
5081
4836
4111
2980
1556
-17
-1583
-2984
-4083
-4770
-4978
-4689
-3929
-2776
-1342
230
1785
3167
4237
4886
5050
4713
3910
2725
1280
-276
-1789
-3110
-4111
-4696
-4811
-4444
-3628
-2440
-994
567
2088
3414
4408
4967
5033
4600
3714
2466
985
-577
-2065
-3332
-4256
-4750
-4769
-4310
-3416
-2172
-699
859
2347
3611
4523
4987
4954
4428
3464
2161
655
-900
-2349
-3550
-4386
-4781
-4698
-4146
-3178
-1884
-389
1160
2609
3810
4639
5007
4876
4259
3217
1858
320
-1242
-2671
-3828
-4600
-4911
-4733
-4083
-3022
-1653
-110
1454
2882
4030
4781
5058
4832
4126
3012
1603
 40
-1518
-2919
-4024
-4725
-4953
-4686
-3952
-2821
-1405
155
1706
3092
4171
4835
5017
4697
3910
2735
1292
-272
-1805
-3152
-4185
-4801
-4941
-4590
-3782
-2593
-1140
433
1968
3311
4324
4904
4992
4582
3716
2486
1018
-537
-2024
-3297
-4233
-4743
-4780
-4342
-3467
-2240
-778
774
2263
3537
4464
4948
4938
4437
3494
2209
712
-842
-2302
-3521
-4383
-4806
-4750
-4221
-3267
-1980
-481
1079
2548
3774
4631
5030
4929
4337
3315
1968
432
-1136
-2581
-3759
-4557
-4897
-4747
-4120
-3078
-1721
-183
1383
2821
3985
4756
5055
4851
4165
3065
1662
 98
-1469
-2885
-4008
-4729
-4975
-4725
-4002
-2878
-1463
101
1662
3062
4161
4849
5055
4759
3989
2823
1378
-201
-1756
-3132
-4192
-4830
-4982
-4635
-3821
-2622
-1157
427
1974
3327
4351
4941
5040
4638
3778
2550
1080
-481
-1977
-3261
-4208
-4730
-4776
-4344
-3473
-2245
-779
781
2279
3563
4500
4994
4993
4497
3559
2276
779
-777
-2239
-3461
-4326
-4752
-4699
-4173
-3222
-1936
-440
1119
2586
3811
4668
5067
4966
4375
3354
2007
472
-1095
-2541
-3722
-4522
-4866
-4720
-4098
-3060
-1707
-171
1395
2833
3998
4770
5069
4865
4177
3075
1670
104
-1466
-2885
-4009
-4730
-4976
-4724
-3999
-2873
-1458
106
1665
3062
4157
4839
5041
4740
3967
2799
1354
-223
-1777
-3150
-4208
-4845
-4997
-4651
-3840
-2643
-1181
403
1950
3306
4335
4933
5041
4649
3798
2577
1112
-446
-1944
-3232
-4187
-4718
-4775
-4353
-3490
-2268
-804
755
2257
3547
4493
4996
5005
4518
3586
2306
810
-749
-2218
-3450
-4329
-4771
-4735
-4225
-3290
-2017
-530
1024
2492
3722
4588
5000
4913
4337
3330
1995
467
-1097
-2544
-3730
-4539
-4893
-4758
-4147
-3118
-1771
-238
1327
2769
3940
4720
5029
4835
4155
3060
1658
 92
-1480
-2903
-4035
-4763
-5017
-4771
-4050
-2925
-1507
 63
1631
3039
4145
4839
5050
4756
3987
2820
1371
-212
-1774
-3157
-4225
-4871
-5032
-4693
-3886
-2691
-1228
357
1909
3271
4307
4914
5030
4646
3803
2588
1128
-429
-1928
-3222
-4184
-4725
-4793
-4382
-3530
-2315
-857
702
2208
3505
4461
4977
4999
4524
3603
2331
839
-721
-2193
-3432
-4319
-4769
-4741
-4238
-3306
-2034
-545
1015
2491
3731
4608
5030
4953
4386
3385
2056
534
-1024
-2466
-3647
-4455
-4814
-4691
-4099
-3094
-1772
-260
1293
2730
3907
4700
5027
4852
4193
3114
1726
166
-1407
-2838
-3984
-4733
-5010
-4789
-4093
-2989
-1586
-24
1543
2959
4082
4799
5037
4772
4031
2889
1462
-107
-1661
-3044
-4118
-4777
-4957
-4639
-3857
-2687
-1244
327
1872
3234
4278
4897
5029
4662
3835
2633
1181
-372
-1872
-3171
-4144
-4698
-4782
-4386
-3548
-2345
-894
662
2169
3473
4438
4966
5000
4538
3626
2360
871
-689
-2165
-3411
-4307
-4767
-4749
-4255
-3330
-2061
-572
991
2473
3721
4606
5036
4966
4403
3405
2078
557
-1001
-2441
-3620
-4426
-4783
-4662
-4073
-3074
-1758
-254
1292
2727
3904
4701
5034
4868
4218
3148
1767
212
-1359
-2792
-3943
-4699
-4985
-4775
-4088
-2992
-1594
-34
1534
2954
4084
4808
5055
4799
4065
2928
1501
-69
-1628
-3018
-4101
-4770
-4960
-4653
-3879
-2714
-1275
296
1845
3214
4268
4899
5045
4692
3877
2685
1239
-312
-1816
-3124
-4109
-4679
-4780
-4401
-3578
-2389
-947
605
2113
3423
4401
4945
4999
4558
3668
2423
950
-598
-2068
-3314
-4216
-4689
-4689
-4218
-3317
-2072
-601
951
2431
3687
4590
5045
5005
4473
3503
2198
691
-864
-2311
-3508
-4341
-4731
-4645
-4090
-3120
-1826
-332
1214
2660
3856
4680
5045
4911
4291
3248
1888
350
-1211
-2640
-3796
-4567
-4878
-4700
-4050
-2991
-1624
-84
1475
2899
4042
4788
5059
4828
4117
3000
1589
 26
-1531
-2928
-4027
-4720
-4940
-4665
-3922
-2784
-1362
201
1753
3137
4213
4874
5052
4730
3941
2768
1328
-231
-1757
-3099
-4125
-4737
-4874
-4524
-3718
-2534
-1087
479
2008
3344
4352
4929
5016
4604
3739
2508
1040
-516
-2005
-3280
-4218
-4730
-4768
-4329
-3454
-2224
-758
798
2291
3568
4496
4980
4969
4463
3516
2225
723
-836
-2299
-3520
-4383
-4805
-4748
-4218
-3264
-1977
-480
1079
2544
3765
4617
5010
4903
4305
3277
1925
386
-1183
-2628
-3804
-4598
-4933
-4777
-4145
-3097
-1734
-191
1379
2819
3984
4754
5050
4842
4151
3045
1638
 70
-1501
-2919
-4043
-4762
-5006
-4753
-4026
-2897
-1479
 90
1654
3058
4160
4850
5057
4761
3990
2823
1377
-204
-1762
-3142
-4206
-4849
-5008
-4668
-3862
-2671
-1213
364
1907
3257
4281
4875
4980
4587
3737
2520
1062
-488
-1977
-3257
-4204
-4729
-4784
-4362
-3502
-2287
-831
720
2214
3498
4441
4944
4956
4475
3551
2281
794
-757
-2219
-3447
-4323
-4765
-4730
-4222
-3288
-2016
-529
1027
2497
3731
4601
5017
4934
4361
3355
2020
491
-1076
-2528
-3720
-4537
-4900
-4774
-4172
-3151
-1811
-282
1282
2727
3905
4696
5018
4839
4176
3096
1708
153
-1413
-2834
-3968
-4703
-4967
-4734
-4027
-2915
-1508
 55
1620
3030
4144
4849
5075
4798
4047
2898
1467
-101
-1651
-3028
-4095
-4750
-4928
-4613
-3835
-2672
-1237
327
1865
3223
4263
4880
5012
4646
3821
2622
1174
-375
-1872
-3169
-4141
-4696
-4782
-4389
-3555
-2356
-908
647
2153
3459
4429
4963
5005
4551
3649
2391
908
-648
-2124
-3373
-4275
-4745
-4738
-4256
-3342
-2084
-602
958
2439
3691
4584
5025
4967
4416
3430
2112
597
-958
-2399
-3583
-4397
-4764
-4652
-4073
-3081
-1771
-268
1279
2718
3902
4707
5050
4894
4253
3192
1820
276
-1283
-2705
-3849
-4603
-4896
-4699
-4032
-2958
-1581
-37
1521
2939
4071
4802
5057
4809
4082
2949
1524
-47
-1610
-3007
-4099
-4778
-4978
-4679
-3911
-2751
-1312
262
1817
3194
4257
4898
5052
4705
3893
2702
1253
-304
-1816
-3133
-4128
-4706
-4814
-4441
-3621
-2431
-985
573
2091
3413
4403
4960
5027
4596
3713
2470
995
-562
-2048
-3314
-4241
-4740
-4765
-4314
-3428
-2192
-724
831
2318
3584
4500
4969
4942
4422
3463
2165
662
-891
-2340
-3541
-4378
-4773
-4691
-4139
-3170
-1876
-379
1171
2622
3826
4657
5029
4901
4286
3246
1889
350
-1213
-2646
-3808
-4586
-4906
-4737
-4096
-3045
-1685
-149
1409
2835
3983
4735
5015
4793
4091
2981
1574
 12
-1547
-2950
-4057
-4759
-4987
-4719
-3982
-2846
-1423
146
1705
3098
4184
4853
5038
4720
3932
2757
1312
-254
-1787
-3135
-4167
-4783
-4922
-4572
-3765
-2580
-1132
432
1959
3292
4296
4868
4951
4537
3670
2441
977
-573
-2055
-3322
-4252
-4756
-4789
-4345
-3466
-2235
-771
783
2272
3545
4470
4951
4939
4435
3491
2205
709
-845
-2301
-3517
-4376
-4795
-4738
-4208
-3256
-1970
-476
1081
2546
3769
4624
5022
4922
4333
3315
1973
444
-1119
-2559
-3735
-4532
-4874
-4727
-4106
-3071
-1721
-189
1373
2809
3973
4746
5048
4849
4166
3070
1670
107
-1462
-2882
-4011
-4739
-4994
-4752
-4038
-2922
-1512
 49
1610
3014
4120
4816
5033
4748
3989
2832
1394
-182
-1738
-3119
-4187
-4837
-5003
-4669
-3868
-2678
-1218
366
1919
3284
4324
4933
5051
4668
3823
2605
1140
-422
-1926
-3223
-4188
-4729
-4795
-4380
-3523
-2304
-841
721
2227
3523
4476
4986
5000
4518
3590
2312
816
-746
-2219
-3458
-4343
-4792
-4764
-4260
-3329
-2058
-569
990
2466
3707
4586
5012
4940
4377
3381
2053
530
-1034
-2486
-3679
-4499
-4866
-4744
-4146
-3128
-1788
-260
1306
2752
3930
4721
5042
4860
4192
3106
1711
148
-1426
-2855
-3997
-4739
-5008
-4779
-4076
-2967
-1563
 -1
1562
2972
4087
4795
5025
4754
4010
2869
1446
-115
-1659
-3031
-4097
-4751
-4930
-4617
-3841
-2678
-1242
324
1867
3231
4278
4902
5040
4677
3852
2650
1195
-364
-1872
-3181
-4164
-4727
-4817
-4424
-3586
-2380
-922
644
2161
3476
4451
4986
5025
4566
3656
2389
898
-665
-2145
-3395
-4295
-4760
-4748
-4259
-3340
-2078
-595
964
2442
3690
4579
5016
4956
4406
3422
2107
598
-952
-2388
-3567
-4377
-4742
-4629
-4050
-3059
-1750
-248
1299
2738
3922
4728
5070
4913
4270
3207
1833
286
-1277
-2701
-3845
-4599
-4890
-4691
-4021
-2944
-1565
-18
1542
2960
4092
4821
5074
4823
4093
2958
1531
-42
-1605
-3002
-4092
-4770
-4967
-4665
-3895
-2732
-1290
287
1843
3222
4287
4929
5084
4737
3926
2734
1285
-273
-1785
-3101
-4096
-4673
-4778
-4403
-3580
-2387
-940
619
2134
3451
4433
4980
5034
4591
3696
2444
964
-591
-2067
-3318
-4224
-4699
-4701
-4230
-3330
-2085
-616
934
2411
3663
4561
5012
4967
4431
3459
2153
648
-902
-2343
-3532
-4355
-4736
-4640
-4076
-3099
-1799
-303
1244
2687
3880
4698
5056
4915
4289
3240
1877
338
-1222
-2648
-3799
-4564
-4868
-4684
-4029
-2966
-1597
-57
1501
2921
4060
4800
5065
4829
4113
2992
1579
 16
-1539
-2933
-4028
-4715
-4929
-4648
-3899
-2757
-1334
230
1779
3158
4226
4877
5043
4710
3912
2733
1294
-256
-1764
-3081
-4080
-4665
-4782
-4419
-3608
-2427
-989
563
2076
3395
4382
4936
4999
4563
3675
2427
946
-614
-2101
-3366
-4288
-4780
-4795
-4331
-3432
-2183
-703
860
2353
3623
4539
5005
4974
4450
3487
2185
681
-872
-2318
-3514
-4345
-4734
-4645
-4088
-3116
-1820
-325
1221
2666
3861
4683
5045
4908
4285
3240
1880
342
-1216
-2643
-3796
-4564
-4873
-4695
-4046
-2988
-1624
-88
1468
2890
4031
4776
5048
4819
4111
2997
1589
 29
-1525
-2921
-4021
-4715
-4937
-4664
-3924
-2789
-1369
193
1745
3128
4204
4863
5038
4713
3921
2744
1305
-249
-1765
-3091
-4101
-4697
-4824
-4467
-3661
-2480
-1038
521
2044
3374
4375
4943
5020
4597
3720
2479
1003
-557
-2047
-3318
-4250
-4752
-4779
-4328
-3440
-2200
-726
835
2330
3605
4529
5007
4988
4476
3523
2229
727
-828
-2282
-3491
-4339
-4748
-4679
-4140
-3182
-1894
-401
1151
2608
3821
4664
5049
4935
4331
3300
1947
408
-1159
-2601
-3774
-4564
-4897
-4740
-4107
-3061
-1702
-163
1402
2837
3997
4763
5054
4842
4147
3039
1629
 60
-1510
-2926
-4047
-4761
-5000
-4739
-4006
-2872
-1450
119
1682
3080
4173
4852
5048
4740
3959
2784
1332
-250
-1806
-3180
-4235
-4867
-5015
-4662
-3845
-2644
-1177
409
1958
3314
4341
4937
5042
4646
3791
2567
1099
-461
-1961
-3250
-4205
-4735
-4789
-4362
-3493
-2265
-796
769
2274
3564
4507
5003
5000
4500
3554
2261
756
-808
-2273
-3495
-4357
-4777
-4719
-4187
-3234
-1948
-453
1103
2565
3785
4637
5030
4924
4328
3304
1956
421
-1146
-2590
-3770
-4570
-4915
-4772
-4154
-3122
-1773
-241
1324
2764
3935
4717
5029
4840
4166
3078
1683
124
-1443
-2863
-3993
-4722
-4977
-4734
-4018
-2897
-1483
 82
1646
3050
4154
4845
5053
4757
3987
2819
1370
-212
-1771
-3152
-4216
-4859
-5016
-4672
-3862
-2666
-1202
384
1934
3293
4326
4928
5039
4650
3802
2582
1117
-443
-1945
-3240
-4203
-4744
-4811
-4398
-3542
-2326
-865
697
2203
3501
4456
4970
4989
4511
3586
2310
815
-746
-2218
-3455
-4338
-4784
-4751
-4243
-3306
-2030
-538
1022
2496
3732
4603
5019
4935
4360
3352
2015
485
-1084
-2535
-3726
-4540
-4899
-4768
-4160
-3133
-1787
-252
1317
2765
3944
4734
5053
4869
4199
3111
1715
151
-1421
-2848
-3986
-4723
-4987
-4753
-4045
-2932
-1525
 37
1600
3006
4115
4815
5034
4750
3991
2834
1394
-184
-1743
-3128
-4201
-4855
-5026
-4697
-3901
-2717
-1260
322
1874
3240
4283
4898
5023
4647
3810
2599
1139
-420
-1924
-3224
-4195
-4745
-4821
-4416
-3569
-2359
-903
654
2158
3453
4408
4921
4940
4462
3538
2264
771
-788
-2258
-3494
-4375
-4819
-4785
-4274
-3335
-2057
-562
1003
2482
3724
4601
5023
4945
4376
3374
2043
520
-1040
-2480
-3660
-4466
-4823
-4696
-4101
-3092
-1767
-252
1301
2739
3914
4705
5029
4851
4188
3107
1716
156
-1416
-2844
-3985
-4726
-4995
-4766
-4060
-2949
-1542
 22
1587
2997
4109
4811
5032
4750
3992
2834
1393
-185
-1746
-3130
-4202
-4855
-5024
-4692
-3893
-2706
-1248
335
1886
3249
4288
4899
5020
4640
3801
2589
1130
-427
-1928
-3223
-4189
-4732
-4803
-4394
-3543
-2330
-872
686
2190
3486
4440
4954
4975
4500
3579
2307
816
-741
-2211
-3448
-4334
-4783
-4755
-4252
-3321
-2050
-561
999
2475
3717
4597
5024
4953
4391
3395
2068
545
-1019
-2470
-3664
-4484
-4851
-4730
-4132
-3114
-1775
-246
1320
2767
3947
4738
5060
4877
4209
3122
1726
162
-1413
-2842
-3984
-4725
-4994
-4764
-4060
-2950
-1544
 19
1585
2998
4115
4825
5055
4784
4037
2889
1457
-116
-1674
-3061
-4139
-4802
-4985
-4670
-3888
-2717
-1272
304
1856
3227
4279
4905
5042
4677
3847
2640
1179
-385
-1897
-3207
-4188
-4746
-4828
-4427
-3579
-2366
-903
663
2177
3485
4451
4976
5006
4538
3621
2351
859
-701
-2176
-3419
-4312
-4769
-4749
-4254
-3329
-2064
-578
980
2457
3702
4585
5016
4950
4393
3403
2082
568
-985
-2421
-3600
-4408
-4770
-4652
-4069
-3074
-1763
-261
1284
2719
3896
4694
5029
4863
4213
3144
1762
208
-1363
-2794
-3942
-4695
-4978
-4764
-4074
-2976
-1579
-20
1546
2963
4088
4809
5051
4791
4054
2915
1488
-83
-1643
-3034
-4119
-4790
-4981
-4673
-3896
-2728
-1284
292
1843
3215
4269
4901
5046
4691
3875
2683
1237
-313
-1816
-3121
-4104
-4670
-4766
-4382
-3554
-2359
-912
644
2155
3466
4443
4984
5032
4584
3686
2431
950
-605
-2080
-3327
-4228
-4698
-4692
-4213
-3305
-2053
-578
976
2453
3702
4594
5034
4976
4425
3438
2117
599
-960
-2405
-3593
-4411
-4781
-4671
-4092
-3099
-1787
-280
1271
2715
3902
4710
5054
4898
4255
3193
1819
273
-1287
-2709
-3852
-4604
-4895
-4695
-4025
-2950
-1572
-27
1531
2948
4080
4810
5065
4818
4092
2962
1542
-24
-1582
-2975
-4067
-4749
-4956
-4667
-3911
-2761
-1329
241
1795
3177
4247
4895
5057
4718
3912
2725
1280
-276
-1788
-3106
-4102
-4683
-4793
-4422
-3604
-2416
-971
586
2102
3422
4411
4965
5029
4595
3710
2466
991
-564
-2045
-3306
-4226
-4717
-4733
-4274
-3382
-2142
-672
881
2365
3627
4537
5001
4970
4447
3487
2189
686
-867
-2316
-3518
-4358
-4758
-4681
-4135
-3172
-1883
-390
1158
2609
3813
4647
5022
4899
4289
3254
1901
367
-1192
-2622
-3780
-4555
-4872
-4701
-4057
-3004
-1642
-104
1454
2880
4027
4777
5055
4830
4126
3014
1606
 45
-1513
-2913
-4016
-4715
-4940
-4670
-3931
-2795
-1374
191
1746
3133
4213
4876
5054
4730
3936
2754
1303
-269
-1808
-3163
-4199
-4818
-4960
-4609
-3798
-2606
-1148
430
1972
3321
4342
4930
5026
4622
3761
2532
1064
-493
-1985
-3263
-4205
-4720
-4762
-4325
-3450
-2221
-755
802
2295
3572
4502
4987
4978
4475
3531
2245
748
-806
-2263
-3479
-4338
-4759
-4703
-4175
-3226
-1944
-454
1099
2559
3778
4630
5025
4923
4333
3314
1971
441
-1122
-2564
-3743
-4542
-4886
-4742
-4123
-3089
-1739
-206
1357
2795
3962
4738
5043
4845
4165
3070
1671
109
-1459
-2878
-4006
-4732
-4986
-4742
-4026
-2907
-1497
 65
1625
3027
4130
4824
5037
4747
3985
2825
1383
-194
-1752
-3134
-4204
-4855
-5022
-4690
-3891
-2703
-1244
339
1892
3257
4299
4913
5036
4659
3821
2610
1151
-407
-1908
-3204
-4169
-4713
-4783
-4372
-3518
-2302
-841
720
2228
3527
4485
5001
5022
4547
3625
2352
859
-700
-2171
-3408
-4294
-4745
-4720
-4223
-3299
-2037
-557
995
2467
3708
4590
5021
4955
4400
3411
2092
578
-976
-2415
-3598
-4410
-4776
-4663
-4082
-3087
-1772
-264
1290
2735
3923
4731
5073
4913
4263
3190
1801
236
-1346
-2789
-3948
-4708
-4994
-4779
-4083
-2976
-1567
  3
1580
3006
4136
4857
5096
4829
4084
2935
1499
-79
-1642
-3035
-4118
-4786
-4974
-4665
-3890
-2725
-1286
284
1833
3203
4258
4892
5042
4692
3880
2690
1244
-309
-1816
-3128
-4119
-4693
-4796
-4419
-3594
-2401
-953
607
2123
3440
4421
4966
5017
4569
3669
2410
923
-640
-2124
-3381
-4291
-4769
-4768
-4291
-3381
-2124
-642
919
2404
3661
4562
5012
4964
4424
3448
2137
627
-928
-2374
-3567
-4394
-4777
-4682
-4119
-3141
-1840
-341
1208
2654
3849
4668
5026
4883
4252
3199
1829
282
-1284
-2717
-3872
-4639
-4944
-4758
-4098
-3029
-1653
-107
1455
2879
4020
4760
5024
4786
4070
2948
1535
-24
-1577
-2966
-4055
-4736
-4944
-4658
-3905
-2760
-1335
229
1777
3154
4220
4868
5031
4693
3891
2707
1263
-292
-1804
-3124
-4124
-4709
-4824
-4456
-3639
-2450
-1004
557
2077
3402
4395
4953
5018
4585
3697
2449
968
-594
-2081
-3348
-4271
-4763
-4779
-4318
-3422
-2177
-703
855
2342
3607
4519
4984
4954
4433
3475
2181
682
-865
-2307
-3502
-4335
-4727
-4644
-4093
-3126
-1835
-343
1203
2650
3850
4679
5048
4920
4306
3267
1911
375
-1184
-2614
-3772
-4546
-4862
-4689
-4045
-2990
-1628
-91
1467
2892
4038
4789
5067
4844
4141
3031
1625
 66
-1491
-2891
-3995
-4696
-4924
-4658
-3923
-2791
-1372
191
1746
3135
4218
4885
5069
4752
3966
2793
1353
-208
-1735
-3077
-4101
-4709
-4841
-4483
-3668
-2476
-1023
546
2076
3411
4415
4985
5064
4644
3769
2531
1056
-506
-2000
-3279
-4220
-4735
-4776
-4338
-3462
-2230
-762
799
2298
3581
4517
5008
5003
4503
3559
2270
768
-793
-2259
-3485
-4351
-4777
-4723
-4194
-3241
-1953
-456
1103
2568
3790
4641
5034
4927
4329
3304
1955
420
-1145
-2585
-3757
-4548
-4882
-4726
-4096
-3052
-1696
-158
1406
2843
4005
4775
5074
4871
4186
3088
1687
124
-1443
-2861
-3988
-4714
-4967
-4723
-4006
-2887
-1476
 88
1650
3055
4160
4853
5066
4774
4007
2841
1393
-192
-1756
-3142
-4213
-4863
-5027
-4689
-3883
-2689
-1225
361
1913
3274
4308
4911
5022
4632
3782
2562
1097
-462
-1960
-3249
-4205
-4737
-4795
-4373
-3511
-2291
-828
730
2231
3521
4466
4970
4979
4493
3562
2283
787
-772
-2241
-3474
-4352
-4794
-4758
-4249
-3313
-2041
-554
999
2466
3694
4558
4967
4878
4299
3289
1953
425
-1139
-2586
-3771
-4581
-4938
-4808
-4203
-3182
-1843
-317
1243
2684
3858
4646
4966
4786
4124
3045
1659
105
-1459
-2880
-4015
-4751
-5017
-4786
-4081
-2971
-1566
 -4
1558
2965
4075
4776
4996
4712
3953
2794
1353
-226
-1786
-3170
-4239
-4889
-5055
-4721
-3920
-2731
-1273
310
1860
3222
4259
4869
4991
4614
3779
2573
1121
-427
-1920
-3208
-4167
-4707
-4777
-4369
-3522
-2313
-860
695
2197
3494
4452
4971
4997
4527
3610
2340
848
-713
-2190
-3437
-4332
-4791
-4772
-4275
-3348
-2077
-585
981
2464
3713
4599
5030
4960
4397
3400
2072
551
-1007
-2446
-3624
-4428
-4782
-4655
-4060
-3054
-1733
-223
1326
2762
3938
4733
5064
4894
4240
3167
1783
227
-1345
-2777
-3927
-4681
-4966
-4753
-4065
-2969
-1572
-13
1553
2970
4096
4815
5056
4793
4054
2911
1482
-90
-1648
-3037
-4119
-4787
-4976
-4666
-3888
-2718
-1272
304
1856
3226
4275
4898
5033
4666
3838
2635
1181
-375
-1877
-3178
-4152
-4707
-4790
-4394
-3554
-2349
-896
663
2173
3481
4451
4984
5025
4570
3666
2407
924
-633
-2108
-3355
-4256
-4724
-4716
-4232
-3318
-2060
-578
981
2462
3714
4607
5048
4990
4440
3455
2136
620
-937
-2381
-3567
-4383
-4752
-4641
-4061
-3069
-1758
-253
1295
2736
3920
4726
5069
4912
4271
3210
1839
297
-1261
-2680
-3820
-4570
-4860
-4661
-3993
-2920
-1546
 -7
1545
2954
4076
4796
5040
4782
4046
2907
1479
-93
-1652
-3042
-4123
-4788
-4973
-4658
-3875
-2701
-1253
327
1882
3257
4313
4943
5086
4726
3903
2703
1250
-308
-1817
-3126
-4110
-4677
-4772
-4387
-3556
-2359
-910
647
2158
3468
4443
4980
5025
4572
3669
2409
922
-639
-2119
-3372
-4277
-4750
-4747
-4270
-3362
-2110
-635
919
2398
3649
4543
4988
4935
4391
3411
2099
589
-962
-2401
-3586
-4401
-4772
-4665
-4092
-3106
-1801
-302
1244
2685
3872
4685
5036
4889
4258
3206
1840
298
-1262
-2688
-3838
-4601
-4903
-4715
-4055
-2987
-1612
-67
1496
2919
4058
4797
5058
4814
4089
2957
1531
-44
-1612
-3014
-4111
-4795
-4998
-4702
-3935
-2774
-1332
246
1806
3191
4261
4910
5072
4731
3924
2734
1286
-273
-1789
-3111
-4113
-4699
-4813
-4445
-3628
-2439
-992
569
2091
3417
4411
4970
5035
4601
3714
2466
986
-573
-2055
-3315
-4230
-4716
-4727
-4263
-3366
-2121
-646
914
2404
3674
4591
5060
5033
4511
3550
2249
743
-814
-2266
-3471
-4312
-4712
-4635
-4089
-3125
-1835
-343
1204
2652
3854
4684
5055
4927
4312
3273
1915
378
-1184
-2616
-3775
-4550
-4866
-4692
-4046
-2989
-1623
-82
1479
2905
4051
4799
5073
4843
4132
3014
1601
 36
-1523
-2923
-4025
-4720
-4941
-4667
-3925
-2787
-1365
198
1750
3134
4209
4868
5044
4719
3929
2757
1322
-226
-1736
-3057
-4062
-4655
-4781
-4427
-3624
-2449
-1015
538
2055
3381
4379
4947
5025
4606
3733
2499
1029
-524
-2007
-3274
-4201
-4702
-4729
-4280
-3395
-2159
-691
864
2352
3619
4536
5006
4980
4460
3500
2200
694
-862
-2315
-3520
-4360
-4759
-4678
-4128
-3159
-1863
-365
1187
2641
3847
4680
5053
4927
4312
3272
1914
375
-1188
-2622
-3783
-4560
-4878
-4707
-4064
-3010
-1647
-110
1448
2873
4019
4770
5047
4824
4122
3013
1609
 51
-1503
-2901
-4004
-4704
-4932
-4667
-3934
-2805
-1390
170
1722
3109
4191
4859
5045
4731
3950
2781
1346
-212
-1737
-3079
-4107
-4720
-4859
-4510
-3703
-2518
-1069
499
2029
3365
4371
4944
5025
4607
3732
2493
1017
-546
-2039
-3316
-4253
-4761
-4793
-4345
-3459
-2219
-743
823
2322
3603
4532
5014
4997
4485
3531
2233
728
-832
-2289
-3501
-4351
-4759
-4689
-4149
-3189
-1902
-411
1138
2590
3797
4634
5012
4892
4284
3250
1895
358
-1207
-2644
-3812
-4597
-4923
-4760
-4123
-3073
-1711
-171
1395
2832
3992
4757
5050
4840
4148
3042
1636
 71
-1496
-2909
-4027
-4740
-4978
-4717
-3985
-2853
-1433
133
1692
3087
4177
4852
5044
4732
3948
2770
1316
-266
-1822
-3194
-4246
-4874
-5017
-4661
-3841
-2638
-1172
411
1953
3301
4318
4904
4998
4594
3734
2507
1040
-517
-2009
-3290
-4235
-4755
-4802
-4371
-3502
-2278
-815
740
2234
3513
4445
4933
4926
4425
3480
2191
690
-870
-2332
-3553
-4413
-4832
-4770
-4233
-3271
-1975
-470
1095
2565
3790
4644
5038
4931
4334
3308
1958
422
-1145
-2588
-3763
-4558
-4894
-4741
-4114
-3071
-1715
-178
1386
2823
3984
4753
5049
4841
4151
3047
1641
 74
-1495
-2911
-4033
-4749
-4990
-4731
-3999
-2866
-1444
126
1687
3084
4175
4850
5040
4728
3945
2773
1330
-236
-1771
-3121
-4155
-4772
-4912
-4559
-3748
-2555
-1097
480
2020
3367
4384
4967
5057
4646
3778
2542
1066
-500
-2000
-3286
-4235
-4757
-4803
-4368
-3494
-2263
-792
771
2273
3558
4495
4986
4980
4478
3532
2240
738
-822
-2283
-3502
-4361
-4780
-4722
-4192
-3240
-1957
-466
1088
2549
3769
4621
5016
4912
4318
3296
1949
415
-1151
-2595
-3774
-4573
-4915
-4769
-4147
-3109
-1755
-218
1349
2791
3961
4740
5046
4850
4169
3073
1672
107
-1462
-2882
-4008
-4731
-4978
-4726
-4000
-2872
-1452
117
1682
3083
4182
4865
5065
4760
3981
2806
1353
-231
-1789
-3166
-4223
-4857
-5005
-4652
-3835
-2633
-1166
418
1964
3317
4340
4932
5034
4637
3783
2562
1100
-455
-1947
-3230
-4180
-4708
-4764
-4343
-3484
-2268
-813
739
2233
3517
4458
4959
4968
4483
3556
2282
792
-761
-2223
-3450
-4322
-4759
-4719
-4206
-3267
-1991
-500
1057
2527
3759
4624
5032
4940
4356
3339
1994
457
-1116
-2568
-3757
-4566
-4918
-4778
-4161
-3126
-1773
-236
1333
2777
3949
4728
5036
4839
4159
3063
1663
 99
-1471
-2890
-4019
-4744
-4996
-4749
-4029
-2906
-1491
 76
1640
3045
4150
4844
5055
4762
3994
2827
1379
-206
-1770
-3157
-4230
-4881
-5047
-4710
-3906
-2712
-1247
342
1899
3268
4311
4923
5045
4665
3824
2610
1148
-412
-1914
-3210
-4176
-4720
-4790
-4381
-3530
-2319
-863
692
2192
3483
4432
4940
4954
4474
3549
2275
786
-768
-2231
-3458
-4333
-4771
-4733
-4223
-3287
-2015
-528
1027
2496
3729
4599
5016
4937
4369
3371
2047
532
-1017
-2449
-3622
-4423
-4777
-4652
-4060
-3058
-1740
-233
1313
2745
3916
4706
5031
4856
4198
3122
1736
180
-1391
-2820
-3965
-4713
-4990
-4770
-4073
-2968
-1564
  0
1569
2987
4110
4825
5060
4789
4041
2889
1449
-132
-1699
-3094
-4178
-4844
-5026
-4707
-3917
-2737
-1283
297
1849
3215
4259
4875
5002
4629
3797
2591
1137
-416
-1914
-3208
-4174
-4720
-4795
-4390
-3544
-2335
-879
679
2185
3486
4448
4971
5001
4535
3621
2355
867
-689
-2160
-3400
-4289
-4742
-4718
-4219
-3291
-2022
-535
1024
2498
3738
4615
5037
4960
4392
3391
2059
533
-1033
-2485
-3678
-4497
-4863
-4741
-4144
-3129
-1793
-269
1293
2737
3915
4707
5030
4853
4190
3110
1720
160
-1411
-2840
-3984
-4729
-5003
-4780
-4082
-2977
-1575
-14
1551
2963
4082
4792
5024
4752
4004
2855
1421
-154
-1714
-3102
-4181
-4842
-5022
-4702
-3914
-2736
-1284
296
1848
3217
4264
4886
5018
4651
3821
2615
1159
-400
-1907
-3212
-4190
-4747
-4830
-4432
-3588
-2377
-917
649
2166
3479
4453
4987
5027
4570
3663
2402
918
-637
-2108
-3350
-4243
-4704
-4688
-4199
-3282
-2024
-546
1006
2478
3719
4601
5033
4969
4416
3430
2114
602
-950
-2388
-3570
-4383
-4750
-4639
-4061
-3070
-1758
-253
1298
2742
3929
4737
5080
4920
4273
3203
1819
259
-1317
-2754
-3908
-4664
-4950
-4737
-4047
-2949
-1551
  7
1570
2982
4101
4812
5045
4774
4028
2881
1449
-123
-1680
-3065
-4140
-4800
-4980
-4663
-3880
-2709
-1264
311
1861
3230
4283
4912
5054
4696
3876
2679
1229
-327
-1835
-3145
-4131
-4699
-4797
-4414
-3586
-2390
-942
616
2129
3443
4422
4965
5016
4570
3673
2418
935
-624
-2106
-3363
-4276
-4757
-4761
-4289
-3384
-2132
-653
906
2390
3648
4549
5000
4953
4414
3437
2126
615
-939
-2383
-3574
-4396
-4774
-4674
-4105
-3123
-1819
-320
1228
2671
3861
4675
5028
4883
4252
3202
1838
299
-1258
-2680
-3827
-4588
-4889
-4702
-4045
-2980
-1610
-68
1492
2915
4057
4802
5072
4840
4129
3011
1599
 35
-1522
-2920
-4019
-4712
-4931
-4655
-3910
-2770
-1348
216
1767
3148
4220
4874
5044
4715
3920
2743
1305
-245
-1755
-3074
-4076
-4666
-4786
-4425
-3616
-2434
-992
566
2088
3417
4417
4984
5059
4636
3758
2517
1040
-521
-2011
-3283
-4214
-4717
-4744
-4293
-3405
-2166
-694
864
2355
3624
4542
5012
4985
4465
3504
2204
698
-858
-2311
-3517
-4359
-4760
-4682
-4134
-3168
-1875
-378
1175
2631
3840
4677
5055
4932
4321
3283
1924
383
-1185
-2625
-3794
-4580
-4906
-4742
-4103
-3052
-1689
-147
1418
2852
4009
4771
5060
4845
4149
3041
1633
 69
-1495
-2904
-4016
-4723
-4954
-4687
-3950
-2816
-1396
168
1722
3108
4189
4853
5034
4714
3926
2751
1308
-257
-1788
-3135
-4167
-4782
-4923
-4573
-3766
-2580
-1130
439
1972
3312
4325
4906
4996
4589
3726
2499
1033
-522
-2010
-3286
-4225
-4739
-4780
-4343
-3469
-2240
-774
784
2280
3560
4492
4980
4973
4472
3528
2239
739
-819
-2280
-3500
-4362
-4784
-4728
-4199
-3247
-1962
-468
1086
2546
3764
4613
5005
4898
4303
3280
1934
403
-1160
-2600
-3774
-4568
-4906
-4756
-4130
-3090
-1735
-198
1369
2809
3976
4750
5051
4849
4162
3059
1653
 84
-1488
-2909
-4035
-4756
-4999
-4743
-4012
-2878
-1453
121
1689
3094
4195
4881
5082
4779
4001
2828
1376
-207
-1766
-3144
-4205
-4843
-4996
-4650
-3838
-2643
-1181
400
1945
3297
4322
4916
5019
4623
3768
2545
1080
-479
-1976
-3264
-4217
-4747
-4803
-4380
-3516
-2294
-830
730
2232
3523
4468
4970
4976
4487
3552
2270
771
-790
-2259
-3490
-4365
-4802
-4760
-4243
-3299
-2019
-525
1035
2505
3736
4599
5006
4913
4329
3315
1974
442
-1124
-2571
-3755
-4561
-4912
-4773
-4159
-3128
-1780
-247
1319
2761
3933
4715
5026
4834
4158
3065
1667
103
-1468
-2892
-4026
-4757
-5016
-4775
-4061
-2942
-1530
 36
1601
3008
4115
4812
5026
4736
3971
2808
1363
-218
-1778
-3161
-4229
-4876
-5038
-4699
-3893
-2698
-1235
351
1903
3266
4301
4907
5021
4635
3788
2571
1108
-451
-1950
-3241
-4200
-4735
-4797
-4379
-3520
-2301
-841
717
2218
3508
4455
4960
4972
4489
3562
2287
796
-760
-2225
-3455
-4332
-4772
-4735
-4225
-3290
-2018
-531
1021
2486
3714
4576
4984
4894
4315
3306
1971
444
-1119
-2563
-3745
-4550
-4900
-4762
-4148
-3117
-1767
-232
1337
2783
3959
4744
5059
4869
4194
3102
1703
138
-1435
-2861
-3997
-4731
-4991
-4753
-4040
-2923
-1511
 55
1621
3030
4141
4841
5060
4775
4014
2854
1410
-172
-1737
-3128
-4205
-4864
-5038
-4710
-3913
-2726
-1265
322
1880
3251
4298
4915
5042
4667
3829
2616
1154
-407
-1911
-3210
-4178
-4722
-4791
-4378
-3522
-2304
-841
721
2228
3526
4480
4992
5009
4529
3603
2328
834
-725
-2195
-3430
-4313
-4759
-4728
-4222
-3291
-2021
-535
1020
2489
3723
4595
5013
4934
4367
3370
2045
531
-1020
-2453
-3626
-4428
-4782
-4657
-4065
-3061
-1742
-234
1313
2746
3919
4710
5037
4864
4208
3135
1751
198
-1370
-2797
-3940
-4687
-4965
-4746
-4051
-2950
-1550
 10
1576
2992
4114
4829
5065
4797
4051
2903
1467
-111
-1676
-3070
-4153
-4819
-5000
-4680
-3890
-2708
-1252
332
1887
3257
4303
4921
5048
4673
3837
2626
1166
-393
-1896
-3196
-4166
-4715
-4792
-4389
-3544
-2336
-883
673
2178
3477
4437
4959
4989
4524
3612
2349
864
-690
-2159
-3397
-4285
-4738
-4717
-4221
-3299
-2036
-555
1000
2475
3717
4599
5028
4958
4397
3401
2076
556
-1000
-2438
-3616
-4421
-4777
-4652
-4060
-3056
-1737
-229
1320
2755
3929
4720
5045
4869
4207
3126
1735
173
-1402
-2834
-3979
-4726
-5001
-4777
-4076
-2968
-1561
  5
1576
2994
4117
4832
5067
4798
4051
2903
1468
-108
-1669
-3058
-4138
-4800
-4979
-4659
-3869
-2690
-1237
344
1896
3264
4310
4929
5059
4690
3859
2654
1199
-356
-1859
-3160
-4133
-4688
-4771
-4375
-3536
-2333
-882
674
2180
3483
4447
4974
5008
4546
3636
2371
883
-677
-2154
-3401
-4299
-4761
-4745
-4252
-3328
-2060
-570
994
2477
3728
4617
5052
4989
4433
3442
2121
604
-951
-2390
-3570
-4379
-4742
-4625
-4043
-3048
-1738
-237
1306
2739
3913
4707
5036
4865
4209
3133
1746
186
-1389
-2824
-3976
-4731
-5015
-4802
-4111
-3012
-1613
-50
1518
2939
4068
4792
5039
4783
4049
2913
1488
-81
-1638
-3028
-4110
-4780
-4970
-4662
-3887
-2720
-1277
299
1854
3232
4293
4931
5082
4731
3916
2721
1271
-286
-1796
-3108
-4096
-4667
-4767
-4385
-3557
-2362
-914
643
2154
3464
4438
4975
5018
4564
3660
2400
914
-645
-2123
-3374
-4277
-4746
-4738
-4254
-3339
-2081
-600
956
2433
3679
4566
5001
4938
4384
3396
2076
560
-997
-2438
-3623
-4436
-4803
-4689
-4107
-3111
-1796
-287
1265
2708
3894
4699
5039
4878
4229
3158
1773
214
-1363
-2800
-3955
-4712
-4998
-4786
-4096
-2996
-1595
-32
1538
2958
4087
4810
5054
4793
4055
2913
1482
-93
-1655
-3048
-4133
-4804
-4994
-4686
-3909
-2742
-1299
276
1828
3201
4256
4888
5031
4674
3853
2654
1202
-354
-1862
-3170
-4154
-4720
-4814
-4429
-3599
-2402
-954
602
2113
3422
4396
4933
4978
4526
3625
2367
884
-672
-2147
-3394
-4294
-4761
-4752
-4270
-3358
-2103
-624
932
2412
3665
4560
5003
4949
4401
3418
2100
584
-973
-2418
-3606
-4424
-4796
-4688
-4113
-3124
-1815
-312
1236
2677
3862
4670
5014
4860
4220
3161
1791
249
-1309
-2729
-3871
-4624
-4915
-4718
-4050
-2977
-1601
-58
1500
2917
4050
4783
5041
4796
4072
2942
1519
-52
-1616
-3015
-4109
-4792
-4994
-4697
-3930
-2768
-1326
251
1809
3190
4254
4895
5048
4698
3882
2687
1235
-323
-1833
-3146
-4134
-4704
-4803
-4420
-3592
-2397
-949
607
2119
3431
4409
4950
5000
4553
3656
2403
922
-633
-2109
-3360
-4266
-4743
-4745
-4275
-3376
-2132
-663
887
2365
3618
4518
4969
4923
4385
3410
2099
589
-966
-2411
-3601
-4423
-4799
-4696
-4123
-3135
-1827
-323
1228
2671
3858
4666
5010
4853
4209
3142
1762
207
-1366
-2799
-3950
-4705
-4989
-4775
-4085
-2986
-1586
-25
1543
2963
4091
4814
5060
4802
4068
2930
1503
-68
-1628
-3022
-4109
-4783
-4976
-4670
-3895
-2726
-1281
297
1852
3227
4285
4918
5065
4710
3892
2695
1244
-314
-1825
-3138
-4128
-4700
-4800
-4419
-3590
-2393
-941
622
2141
3461
4446
4993
5047
4602
3705
2449
964
-595
-2076
-3330
-4237
-4712
-4712
-4237
-3333
-2086
-615
934
2408
3656
4547
4989
4935
4390
3410
2098
589
-962
-2401
-3585
-4400
-4770
-4663
-4088
-3100
-1793
-290
1259
2701
3890
4703
5053
4904
4270
3216
1848
307
-1251
-2674
-3820
-4577
-4874
-4682
-4021
-2953
-1583
-45
1508
2920
4048
4777
5030
4781
4055
2924
1501
-68
-1629
-3025
-4117
-4796
-4997
-4700
-3933
-2773
-1333
242
1798
3179
4246
4892
5051
4708
3901
2712
1265
-292
-1805
-3124
-4123
-4707
-4821
-4453
-3638
-2451
-1006
553
2072
3397
4391
4951
5019
4589
3706
2462
986
-570
-2052
-3312
-4229
-4717
-4731
-4270
-3376
-2135
-663
893
2379
3642
4552
5013
4975
4442
3470
2159
645
-916
-2368
-3567
-4398
-4783
-4688
-4121
-3137
-1828
-322
1235
2687
3886
4709
5069
4927
4299
3247
1879
335
-1230
-2661
-3817
-4587
-4897
-4717
-4066
-3005
-1636
-95
1466
2892
4037
4784
5057
4827
4118
3000
1587
 22
-1537
-2936
-4036
-4730
-4948
-4669
-3922
-2778
-1351
216
1770
3153
4225
4878
5047
4713
3914
2731
1284
-278
-1802
-3137
-4154
-4754
-4879
-4516
-3699
-2505
-1051
518
2048
3381
4384
4953
5031
4610
3734
2495
1022
-535
-2020
-3287
-4212
-4710
-4734
-4282
-3397
-2160
-692
864
2352
3622
4540
5012
4987
4468
3510
2212
709
-845
-2294
-3495
-4334
-4730
-4650
-4101
-3135
-1844
-351
1196
2645
3847
4678
5050
4924
4311
3272
1914
374
-1191
-2628
-3794
-4576
-4898
-4730
-4087
-3032
-1666
-123
1443
2875
4028
4783
5062
4836
4127
3008
1593
 22
-1543
-2950
-4059
-4760
-4985
-4713
-3971
-2830
-1403
168
1728
3120
4205
4872
5054
4735
3947
2772
1330
-234
-1764
-3109
-4137
-4748
-4884
-4528
-3716
-2523
-1067
507
2044
3387
4401
4982
5071
4661
3795
2563
1093
-466
-1957
-3235
-4175
-4690
-4731
-4294
-3419
-2190
-724
834
2330
3610
4542
5029
5021
4517
3571
2279
775
-787
-2253
-3477
-4342
-4765
-4707
-4174
-3216
-1924
-422
1140
2608
3831
4683
5075
4966
4366
3337
1985
447
-1122
-2566
-3743
-4540
-4879
-4731
-4109
-3073
-1723
-193
1366
2799
3959
4729
5028
4827
4143
3046
1645
 82
-1487
-2907
-4036
-4762
-5014
-4768
-4048
-2926
-1511
 55
1617
3019
4119
4807
5011
4711
3938
2768
1320
-260
-1816
-3191
-4248
-4883
-5032
-4681
-3865
-2664
-1197
388
1937
3293
4320
4917
5023
4630
3781
2563
1103
-448
-1938
-3219
-4167
-4692
-4745
-4321
-3459
-2240
-782
772
2267
3550
4490
4987
4992
4502
3569
2289
793
-765
-2231
-3460
-4335
-4773
-4733
-4219
-3279
-2002
-510
1048
2519
3751
4617
5027
4936
4355
3341
1999
465
-1105
-2556
-3743
-4552
-4904
-4765
-4150
-3116
-1764
-227
1341
2785
3957
4737
5044
4848
4167
3070
1668
102
-1469
-2890
-4020
-4747
-5000
-4755
-4037
-2917
-1505
 59
1622
3026
4133
4830
5049
4766
4011
2859
1426
-143
-1693
-3067
-4131
-4778
-4946
-4617
-3825
-2648
-1200
374
1918
3278
4317
4929
5053
4676
3839
2629
1170
-388
-1890
-3188
-4156
-4703
-4777
-4370
-3521
-2309
-852
708
2215
3516
4476
4997
5025
4557
3643
2376
889
-667
-2139
-3379
-4270
-4727
-4708
-4214
-3291
-2028
-544
1014
2490
3733
4616
5046
4978
4418
3424
2101
583
-972
-2411
-3590
-4397
-4756
-4636
-4048
-3048
-1732
-226
1322
2757
3934
4730
5060
4890
4234
3157
1769
208
-1367
-2802
-3954
-4708
-4991
-4775
-4083
-2982
-1581
-18
1550
2970
4097
4818
5061
4800
4063
2922
1494
-79
-1639
-3032
-4117
-4789
-4980
-4672
-3895
-2727
-1283
293
1845
3216
4268
4897
5037
4677
3855
2655
1201
-356
-1864
-3174
-4158
-4723
-4816
-4428
-3593
-2392
-939
622
2137
3449
4425
4963
5008
4556
3654
2397
914
-643
-2119
-3368
-4272
-4744
-4741
-4264
-3358
-2107
-633
918
2394
3644
4538
4984
4936
4398
3427
2122
619
-929
-2368
-3556
-4379
-4761
-4666
-4104
-3127
-1828
-330
1218
2664
3859
4679
5037
4895
4265
3211
1841
295
-1270
-2699
-3850
-4609
-4905
-4708
-4038
-2959
-1577
-27
1536
2955
4088
4817
5069
4818
4088
2954
1530
-39
-1598
-2991
-4079
-4756
-4956
-4659
-3896
-2742
-1310
256
1803
3175
4233
4872
5026
4680
3871
2681
1235
-321
-1832
-3148
-4142
-4719
-4824
-4447
-3621
-2424
-970
596
2118
3442
4430
4980
5035
4589
3690
2431
945
-617
-2099
-3353
-4260
-4733
-4730
-4251
-3342
-2088
-610
947
2428
3682
4578
5022
4969
4422
3438
2120
604
-955
-2402
-3593
-4415
-4789
-4684
-4109
-3119
-1808
-302
1251
2697
3888
4700
5049
4895
4255
3190
1810
254
-1321
-2759
-3915
-4675
-4965
-4757
-4072
-2977
-1581
-21
1545
2964
4091
4813
5057
4796
4059
2917
1487
-86
-1648
-3042
-4128
-4801
-4995
-4690
-3918
-2755
-1315
257
1807
3180
4235
4868
5014
4659
3840
2642
1190
-369
-1879
-3192
-4181
-4752
-4851
-4469
-3640
-2442
-990
572
2090
3410
4395
4945
5002
4562
3670
2420
942
-613
-2090
-3344
-4253
-4732
-4737
-4269
-3369
-2123
-649
906
2391
3651
4557
5013
4970
4433
3458
2144
629
-932
-2383
-3582
-4413
-4798
-4702
-4137
-3154
-1848
-344
1211
2662
3860
4681
5040
4897
4268
3214
1846
301
-1262
-2692
-3845
-4610
-4914
-4729
-4071
-3005
-1632
-88
1475
2901
4045
4792
5063
4832
4122
3004
1593
 30
-1527
-2925
-4025
-4718
-4937
-4660
-3915
-2774
-1350
216
1769
3152
4225
4879
5049
4717
3918
2734
1287
-277
-1802
-3139
-4157
-4756
-4880
-4515
-3695
-2499
-1045
524
2052
3382
4381
4946
5019
4595
3718
2479
1005
-552
-2039
-3308
-4238
-4739
-4766
-4315
-3427
-2186
-713
848
2342
3614
4533
5003
4976
4453
3489
2184
675
-885
-2339
-3545
-4385
-4783
-4701
-4150
-3180
-1885
-387
1165
2618
3823
4656
5030
4905
4293
3257
1902
367
-1194
-2625
-3786
-4563
-4883
-4714
-4072
-3020
-1659
-123
1436
2863
4011
4762
5040
4816
4111
2997
1588
 24
-1535
-2936
-4039
-4735
-4957
-4682
-3937
-2796
-1370
199
1756
3144
4223
4884
5061
4735
3941
2761
1314
-251
-1782
-3127
-4154
-4765
-4900
-4546
-3735
-2545
-1092
479
2012
3353
4365
4944
5032
4621
3754
2521
1049
-511
-2004
-3282
-4222
-4735
-4772
-4329
-3448
-2213
-741
820
2315
3592
4517
4995
4975
4461
3504
2206
700
-859
-2317
-3529
-4379
-4789
-4721
-4183
-3225
-1938
-445
1107
2565
3780
4626
5015
4906
4307
3281
1932
398
-1165
-2604
-3774
-4564
-4895
-4738
-4106
-3060
-1701
-162
1404
2839
3999
4764
5055
4841
4144
3034
1623
 53
-1516
-2931
-4048
-4758
-4991
-4725
-3986
-2847
-1421
149
1710
3105
4192
4864
5051
4736
3952
2780
1338
-226
-1758
-3107
-4141
-4759
-4903
-4556
-3752
-2569
-1120
448
1981
3323
4337
4920
5013
4607
3744
2516
1047
-511
-2004
-3284
-4228
-4746
-4789
-4353
-3478
-2246
-776
786
2285
3568
4502
4990
4981
4477
3529
2238
736
-822
-2281
-3496
-4352
-4768
-4706
-4175
-3223
-1942
-452
1098
2556
3773
4622
5015
4910
4317
3296
1952
421
-1141
-2579
-3753
-4547
-4886
-4737
-4114
-3078
-1728
-196
1365
2800
3963
4733
5034
4831
4146
3047
1645
 81
-1489
-2907
-4033
-4754
-5001
-4748
-4020
-2890
-1468
105
1674
3081
4184
4873
5077
4775
3996
2820
1363
-225
-1789
-3171
-4233
-4870
-5019
-4665
-3844
-2636
-1163
428
1980
3336
4360
4950
5047
4643
3781
2551
1082
-476
-1969
-3248
-4190
-4706
-4749
-4313
-3441
-2214
-750
805
2298
3576
4508
4998
4995
4498
3560
2278
782
-774
-2237
-3463
-4335
-4770
-4727
-4211
-3271
-1993
-503
1054
2523
3753
4616
5022
4929
4345
3329
1986
454
-1113
-2558
-3737
-4536
-4878
-4730
-4107
-3067
-1713
-177
1387
2823
3985
4753
5048
4841
4152
3052
1650
 90
-1472
-2882
-3998
-4710
-4950
-4693
-3966
-2840
-1425
137
1695
3091
4186
4871
5074
4776
4006
2841
1396
-182
-1738
-3116
-4179
-4822
-4982
-4642
-3836
-2644
-1184
398
1946
3304
4335
4935
5045
4654
3803
2582
1116
-444
-1943
-3233
-4187
-4717
-4771
-4344
-3476
-2250
-783
779
2280
3567
4508
5005
5006
4512
3575
2291
793
-766
-2231
-3457
-4328
-4761
-4716
-4198
-3255
-1977
-486
1069
2535
3761
4621
5024
4928
4342
3326
1984
453
-1111
-2555
-3734
-4535
-4879
-4735
-4115
-3080
-1730
-196
1367
2805
3970
4744
5047
4849
4168
3073
1676
115
-1450
-2866
-3990
-4713
-4964
-4719
-4001
-2882
-1472
 90
1650
3051
4154
4845
5056
4764
3999
2836
1392
-187
-1745
-3127
-4194
-4840
-5002
-4664
-3858
-2664
-1201
385
1938
3300
4335
4939
5051
4661
3810
2587
1118
-446
-1950
-3244
-4203
-4736
-4792
-4367
-3500
-2273
-804
761
2266
3558
4504
5006
5011
4521
3586
2303
805
-755
-2223
-3454
-4329
-4767
-4726
-4212
-3272
-1996
-507
1049
2517
3746
4609
5017
4926
4345
3334
1996
466
-1099
-2545
-3729
-4536
-4888
-4751
-4139
-3111
-1766
-235
1327
2765
3934
4714
5024
4832
4157
3067
1671
109
-1460
-2882
-4016
-4749
-5011
-4774
-4064
-2949
-1540
 24
1590
2999
4111
4812
5033
4749
3990
2831
1389
-191
-1752
-3138
-4210
-4862
-5030
-4698
-3898
-2709
-1251
332
1882
3244
4281
4890
5008
4627
3786
2574
1115
-441
-1939
-3232
-4193
-4733
-4800
-4387
-3532
-2317
-857
703
2208
3505
4461
4977
4998
4524
3603
2331
838
-723
-2196
-3438
-4326
-4778
-4752
-4249
-3316
-2041
-549
1015
2494
3736
4614
5035
4956
4384
3378
2040
508
-1062
-2517
-3710
-4527
-4887
-4758
-4151
-3125
-1779
-244
1325
2773
3953
4744
5065
4883
4215
3129
1734
170
-1405
-2836
-3979
-4724
-4996
-4771
-4070
-2964
-1561
 -1
1561
2969
4080
4782
5004
4723
3966
2810
1371
-206
-1764
-3147
-4217
-4868
-5034
-4700
-3899
-2708
-1247
339
1893
3260
4303
4917
5041
4663
3825
2614
1154
-405
-1908
-3205
-4173
-4719
-4791
-4383
-3533
-2321
-865
692
2195
3491
4446
4961
4983
4511
3592
2323
835
-720
-2189
-3426
-4312
-4763
-4738
-4238
-3311
-2044
-558
998
2472
3710
4586
5007
4930
4360
3357
2023
494
-1075
-2528
-3722
-4539
-4901
-4774
-4168
-3142
-1796
-261
1310
2761
3943
4736
5058
4875
4206
3119
1721
156
-1420
-2851
-3993
-4734
-5002
-4770
-4063
-2949
-1539
 27
1594
3005
4118
4821
5043
4760
4002
2845
1405
-173
-1732
-3115
-4186
-4837
-5006
-4674
-3876
-2689
-1231
352
1904
3269
4311
4924
5049
4672
3836
2625
1166
-392
-1895
-3194
-4164
-4712
-4787
-4381
-3532
-2320
-862
699
2207
3509
4470
4990
5017
4546
3628
2358
867
-693
-2167
-3408
-4297
-4751
-4726
-4225
-3295
-2025
-536
1023
2498
3737
4612
5031
4951
4380
3375
2040
512
-1054
-2503
-3691
-4502
-4859
-4729
-4124
-3102
-1763
-236
1327
2771
3948
4740
5064
4886
4223
3143
1754
195
-1375
-2801
-3941
-4682
-4952
-4724
-4021
-2913
-1509
 52
1616
3024
4137
4841
5066
4788
4034
2882
1446
-129
-1687
-3072
-4146
-4803
-4978
-4653
-3861
-2680
-1225
357
1910
3280
4329
4950
5083
4715
3884
2677
1219
-341
-1848
-3154
-4131
-4689
-4773
-4376
-3534
-2328
-872
687
2197
3501
4466
4991
5022
4556
3642
2375
886
-673
-2147
-3391
-4284
-4742
-4723
-4229
-3307
-2042
-558
998
2474
3718
4601
5032
4967
4411
3423
2105
593
-958
-2395
-3574
-4383
-4747
-4633
-4052
-3061
-1753
-254
1288
2721
3898
4697
5033
4871
4225
3161
1787
242
-1315
-2734
-3872
-4619
-4905
-4701
-4028
-2951
-1573
-29
1525
2937
4061
4784
5032
4778
4048
2915
1495
-69
-1622
-3007
-4088
-4757
-4949
-4646
-3877
-2718
-1283
286
1833
3204
4261
4897
5048
4699
3886
2694
1246
-310
-1820
-3135
-4128
-4705
-4811
-4435
-3613
-2422
-977
581
2095
3410
4392
4939
4993
4550
3657
2406
928
-624
-2097
-3344
-4245
-4715
-4712
-4236
-3332
-2084
-614
935
2409
3657
4549
4993
4942
4400
3423
2114
607
-943
-2383
-3568
-4387
-4763
-4661
-4093
-3112
-1810
-312
1235
2678
3870
4688
5046
4905
4278
3230
1867
327
-1233
-2659
-3810
-4575
-4879
-4693
-4035
-2969
-1598
-56
1500
2918
4050
4781
5035
4786
4058
2923
1498
-75
-1638
-3035
-4127
-4806
-5006
-4708
-3943
-2784
-1348
224
1776
3154
4219
4863
5022
4680
3874
2689
1246
-307
-1816
-3130
-4124
-4704
-4813
-4443
-3625
-2436
-992
567
2085
3407
4397
4952
5014
4578
3689
2439
958
-605
-2093
-3359
-4282
-4773
-4789
-4325
-3427
-2178
-699
864
2356
3625
4541
5008
4979
4455
3493
2192
687
-869
-2319
-3521
-4360
-4756
-4674
-4122
-3152
-1856
-357
1196
2650
3856
4689
5061
4931
4313
3268
1903
357
-1213
-2653
-3818
-4597
-4914
-4738
-4088
-3026
-1654
-109
1455
2883
4029
4775
5046
4813
4101
2982
1569
  6
-1550
-2946
-4043
-4734
-4951
-4675
-3932
-2794
-1373
189
1740
3123
4198
4856
5031
4704
3911
2731
1285
-280
-1810
-3154
-4180
-4789
-4922
-4564
-3749
-2554
-1097
478
2015
3355
4364
4937
5016
4594
3716
2472
993
-571
-2065
-3339
-4271
-4772
-4794
-4336
-3440
-2190
-706
864
2366
3644
4568
5042
5017
4495
3531
2226
715
-847
-2304
-3512
-4356
-4757
-4678
-4129
-3162
-1869
-373
1178
2629
3832
4662
5032
4901
4283
3239
1877
336
-1229
-2663
-3822
-4595
-4907
-4728
-4077
-3015
-1646
-104
1456
2879
4020
4763
5031
4796
4083
2963
1550
-12
-1569
-2964
-4062
-4752
-4970
-4692
-3946
-2804
-1379
190
1746
3134
4214
4876
5053
4728
3933
2751
1302
-267
-1802
-3150
-4180
-4793
-4929
-4573
-3761
-2568
-1112
461
1996
3336
4345
4919
5002
4585
3712
2476
1002
-558
-2049
-3325
-4262
-4772
-4807
-4363
-3483
-2250
-782
776
2269
3544
4471
4952
4939
4431
3483
2193
694
-859
-2313
-3523
-4373
-4783
-4716
-4179
-3222
-1935
-442
1111
2571
3786
4633
5021
4910
4310
3282
1931
394
-1171
-2611
-3783
-4572
-4903
-4743
-4109
-3062
-1702
-164
1400
2833
3989
4752
5042
4829
4135
3030
1624
 59
-1506
-2918
-4036
-4748
-4986
-4726
-3994
-2862
-1441
128
1692
3093
4191
4875
5075
4771
3993
2818
1365
-221
-1782
-3163
-4227
-4867
-5021
-4675
-3862
-2664
-1199
386
1935
3291
4319
4915
5020
4624
3771
2547
1081
-477
-1974
-3259
-4211
-4737
-4789
-4361
-3493
-2267
-801
760
2262
3551
4493
4992
4994
4501
3564
2279
780
-780
-2247
-3476
-4348
-4781
-4735
-4214
-3269
-1987
-493
1066
2535
3764
4626
5031
4936
4351
3335
1991
457
-1112
-2560
-3745
-4550
-4898
-4756
-4136
-3099
-1745
-207
1362
2806
3977
4757
5064
4867
4186
3088
1686
119
-1454
-2878
-4011
-4741
-4998
-4757
-4041
-2921
-1508
 58
1623
3029
4136
4832
5046
4757
3992
2829
1384
-196
-1756
-3138
-4205
-4852
-5014
-4675
-3870
-2677
-1215
368
1918
3278
4312
4915
5028
4641
3794
2577
1115
-442
-1940
-3230
-4187
-4722
-4783
-4365
-3507
-2290
-831
724
2223
3510
4454
4956
4965
4478
3548
2271
778
-778
-2243
-3472
-4347
-4786
-4749
-4239
-3303
-2031
-545
1008
2475
3705
4571
4984
4899
4324
3318
1984
456
-1110
-2559
-3749
-4563
-4923
-4795
-4190
-3168
-1826
-296
1268
2712
3887
4673
4990
4804
4135
3048
1655
 97
-1470
-2891
-4022
-4752
-5009
-4769
-4055
-2937
-1526
 39
1605
3013
4122
4822
5040
4756
3997
2839
1399
-179
-1738
-3122
-4193
-4847
-5017
-4688
-3892
-2707
-1252
330
1881
3247
4291
4908
5037
4666
3835
2631
1178
-376
-1875
-3172
-4142
-4692
-4770
-4369
-3526
-2319
-865
693
2200
3502
4464
4987
5016
4549
3634
2365
875
-685
-2161
-3406
-4300
-4760
-4743
-4249
-3327
-2062
-576
983
2461
3706
4590
5021
4953
4393
3397
2069
542
-1027
-2485
-3685
-4513
-4887
-4771
-4178
-3163
-1825
-295
1275
2729
3917
4720
5054
4884
4227
3149
1759
196
-1381
-2817
-3968
-4720
-5000
-4780
-4082
-2975
-1569
 -1
1569
2988
4110
4823
5054
4779
4027
2873
1433
-146
-1708
-3095
-4170
-4826
-4999
-4674
-3883
-2704
-1253
325
1875
3243
4291
4915
5051
4688
3864
2665
1214
-339
-1841
-3143
-4120
-4680
-4769
-4379
-3545
-2346
-897
658
2164
3468
4434
4962
4997
4535
3624
2359
871
-688
-2163
-3409
-4304
-4766
-4751
-4260
-3340
-2078
-595
962
2439
3684
4570
5004
4941
4387
3399
2080
567
-985
-2423
-3603
-4414
-4779
-4667
-4088
-3099
-1792
-294
1249
2683
3863
4665
5006
4849
4209
3152
1785
248
-1304
-2718
-3853
-4599
-4884
-4680
-4008
-2930
-1552
 -7
1549
2962
4088
4811
5056
4798
4061
2919
1487
-89
-1654
-3049
-4137
-4809
-5001
-4693
-3917
-2749
-1305
271
1824
3198
4254
4887
5033
4679
3862
2670
1225
-324
-1823
-3124
-4101
-4662
-4755
-4370
-3545
-2357
-921
621
2116
3411
4371
4898
4937
4484
3586
2338
869
-671
-2130
-3361
-4248
-4708
-4697
-4216
-3311
-2065
-596
951
2424
3673
4567
5014
4966
4427
3452
2143
635
-917
-2357
-3544
-4363
-4738
-4633
-4061
-3075
-1769
-268
1280
2720
3906
4714
5059
4903
4262
3200
1827
281
-1281
-2705
-3849
-4603
-4893
-4694
-4023
-2946
-1567
-22
1536
2951
4079
4805
5055
4802
4072
2939
1516
-52
-1610
-3000
-4085
-4757
-4953
-4652
-3885
-2728
-1294
273
1820
3192
4251
4889
5045
4701
3896
2712
1272
-276
-1779
-3088
-4078
-4654
-4762
-4390
-3572
-2385
-942
615
2131
3450
4438
4991
5052
4614
3724
2474
993
-566
-2049
-3309
-4225
-4711
-4723
-4259
-3363
-2119
-645
913
2402
3667
4579
5042
5005
4473
3501
2190
676
-884
-2336
-3534
-4365
-4749
-4653
-4088
-3106
-1802
-300
1250
2695
3887
4701
5053
4904
4270
3214
1845
303
-1257
-2680
-3826
-4584
-4881
-4688
-4025
-2955
-1581
-37
1522
2944
4082
4821
5085
4847
4131
3008
1592
 26
-1534
-2933
-4033
-4726
-4945
-4669
-3925
-2785
-1361
205
1760
3148
4227
4890
5069
4746
3955
2778
1334
-229
-1759
-3103
-4129
-4739
-4874
-4518
-3706
-2515
-1062
508
2038
3374
4378
4948
5026
4606
3731
2493
1019
-539
-2028
-3300
-4232
-4736
-4765
-4316
-3430
-2191
-718
844
2339
3615
4541
5019
5001
4489
3534
2237
733
-826
-2284
-3497
-4349
-4760
-4695
-4160
-3206
-1924
-436
1110
2561
3768
4607
4988
4872
4270
3244
1897
368
-1189
-2619
-3781
-4561
-4885
-4721
-4085
-3037
-1680
-144
1416
2846
4001
4762
5053
4841
4150
3047
1644
 83
-1479
-2888
-4004
-4716
-4954
-4697
-3971
-2845
-1432
127
1681
3071
4160
4836
5031
4725
3948
2778
1332
-244
-1794
-3162
-4213
-4840
-4983
-4626
-3805
-2601
-1133
452
1998
3350
4371
4961
5060
4659
3801
2575
1108
-450
-1945
-3229
-4179
-4704
-4756
-4330
-3465
-2242
-778
780
2279
3566
4507
5004
5006
4513
3575
2292
795
-760
-2219
-3437
-4297
-4719
-4664
-4138
-3190
-1910
-419
1134
2597
3818
4673
5070
4968
4377
3355
2009
475
-1092
-2538
-3719
-4521
-4867
-4724
-4106
-3073
-1724
-192
1370
2808
3974
4750
5055
4857
4177
3082
1682
119
-1449
-2869
-3998
-4724
-4977
-4733
-4016
-2896
-1484
 80
1643
3047
4152
4847
5060
4770
4007
2846
1405
-171
-1726
-3103
-4166
-4809
-4970
-4633
-3833
-2648
-1195
380
1923
3279
4311
4915
5030
4647
3804
2590
1131
-426
-1924
-3217
-4179
-4720
-4787
-4375
-3520
-2303
-840
724
2235
3539
4502
5024
5050
4579
3659
2386
891
-673
-2151
-3397
-4290
-4748
-4726
-4229
-3301
-2031
-542
1019
2497
3739
4619
5043
4968
4400
3397
2063
533
-1037
-2493
-3690
-4511
-4879
-4758
-4160
-3141
-1801
-270
1299
2750
3936
4736
5067
4895
4238
3162
1775
217
-1355
-2786
-3934
-4685
-4966
-4750
-4059
-2960
-1563
 -4
1560
2976
4099
4816
5055
4790
4047
2901
1467
-110
-1674
-3069
-4155
-4825
-5014
-4704
-3926
-2756
-1312
263
1815
3186
4238
4867
5008
4648
3827
2629
1178
-376
-1880
-3184
-4163
-4724
-4814
-4424
-3591
-2392
-944
612
2120
3426
4396
4930
4971
4517
3615
2358
877
-677
-2149
-3394
-4292
-4757
-4747
-4261
-3345
-2085
-601
958
2440
3693
4587
5030
4976
4429
3447
2132
619
-937
-2380
-3569
-4390
-4765
-4661
-4089
-3104
-1798
-297
1251
2692
3879
4689
5035
4882
4243
3184
1813
269
-1290
-2712
-3856
-4610
-4902
-4706
-4040
-2968
-1594
-52
1504
2919
4050
4781
5038
4793
4072
2946
1530
-32
-1585
-2975
-4063
-4742
-4946
-4654
-3895
-2743
-1310
261
1815
3195
4263
4910
5070
4728
3920
2730
1282
-276
-1790
-3109
-4107
-4689
-4800
-4428
-3609
-2420
-974
584
2100
3418
4402
4949
5004
4560
3664
2409
925
-636
-2120
-3380
-4295
-4777
-4784
-4313
-3409
-2157
-679
881
2367
3629
4536
4995
4958
4429
3462
2158
651
-904
-2354
-3554
-4392
-4787
-4704
-4152
-3183
-1888
-390
1161
2614
3817
4648
5017
4885
4266
3221
1858
317
-1246
-2677
-3834
-4604
-4912
-4731
-4077
-3014
-1643
-99
1464
2891
4036
4784
5057
4827
4118
3001
1590
 27
-1531
-2931
-4032
-4728
-4951
-4679
-3939
-2803
-1383
179
1731
3116
4194
4856
5035
4714
3926
2752
1311
-249
-1775
-3116
-4140
-4749
-4883
-4527
-3714
-2522
-1067
505
2039
3378
4385
4957
5036
4615
3737
2494
1014
-550
-2044
-3320
-4255
-4760
-4788
-4336
-3448
-2208
-735
825
2316
3586
4503
4973
4946
4427
3468
2170
667
-885
-2332
-3532
-4369
-4764
-4683
-4132
-3165
-1871
-375
1177
2630
3837
4671
5045
4920
4307
3269
1910
370
-1196
-2633
-3799
-4582
-4906
-4740
-4101
-3050
-1688
-149
1413
2844
3997
4755
5040
4823
4124
3015
1608
 44
-1517
-2922
-4030
-4731
-4957
-4686
-3945
-2807
-1385
181
1735
3122
4203
4868
5049
4728
3936
2752
1294
-290
-1845
-3215
-4263
-4885
-5021
-4655
-3826
-2613
-1138
451
1998
3347
4362
4940
5024
4606
3731
2488
1007
-560
-2059
-3341
-4282
-4792
-4824
-4375
-3487
-2244
-766
800
2300
3580
4510
4992
4977
4468
3518
2225
724
-830
-2284
-3494
-4344
-4754
-4687
-4151
-3194
-1909
-417
1134
2590
3803
4647
5032
4917
4314
3282
1929
390
-1178
-2621
-3795
-4587
-4921
-4764
-4132
-3085
-1724
-181
1388
2828
3993
4764
5062
4855
4163
3058
1649
 79
-1494
-2914
-4040
-4760
-5005
-4751
-4024
-2897
-1480
 85
1644
3040
4133
4813
5011
4707
3931
2761
1314
-263
-1814
-3184
-4237
-4868
-5013
-4660
-3842
-2640
-1174
411
1956
3308
4331
4921
5020
4618
3758
2530
1060
-502
-2001
-3289
-4241
-4768
-4821
-4394
-3528
-2305
-842
716
2214
3499
4439
4937
4941
4450
3516
2237
744
-810
-2271
-3493
-4360
-4789
-4740
-4218
-3272
-1991
-497
1061
2528
3755
4615
5018
4921
4336
3320
1979
448
-1116
-2560
-3740
-4543
-4890
-4750
-4134
-3102
-1754
-221
1344
2786
3958
4740
5053
4862
4188
3098
1701
138
-1433
-2856
-3990
-4722
-4980
-4740
-4024
-2904
-1490
 77
1644
3052
4160
4855
5067
4775
4005
2837
1386
-201
-1767
-3156
-4230
-4881
-5048
-4712
-3908
-2716
-1253
333
1886
3250
4288
4897
5014
4631
3788
2572
1109
-452
-1956
-3254
-4222
-4768
-4840
-4433
-3582
-2370
-912
647
2154
3454
4413
4932
4957
4485
3566
2296
805
-754
-2224
-3461
-4346
-4794
-4763
-4257
-3323
-2049
-559
1000
2473
3710
4581
4998
4916
4344
3340
2009
486
-1074
-2518
-3702
-4511
-4868
-4738
-4133
-3112
-1773
-246
1317
2761
3939
4731
5056
4880
4220
3143
1758
203
-1364
-2789
-3929
-4671
-4944
-4721
-4023
-2921
-1522
 35
1596
3004
4118
4826
5055
4782
4036
2892
1464
-100
-1648
-3023
-4091
-4746
-4924
-4608
-3828
-2661
-1221
349
1895
3260
4306
4928
5063
4697
3869
2665
1208
-351
-1860
-3168
-4151
-4715
-4809
-4422
-3592
-2395
-948
607
2116
3424
4398
4937
4985
4537
3641
2390
915
-633
-2100
-3339
-4232
-4693
-4681
-4197
-3284
-2030
-554
998
2474
3721
4611
5050
4992
4443
3459
2142
629
-925
-2368
-3554
-4373
-4746
-4641
-4068
-3082
-1775
-272
1278
2724
3915
4730
5081
4932
4296
3238
1866
319
-1244
-2671
-3818
-4576
-4870
-4673
-4004
-2928
-1548
  0
1561
2980
4114
4845
5100
4853
4128
2999
1581
 17
-1537
-2927
-4016
-4697
-4906
-4621
-3872
-2731
-1310
250
1794
3169
4234
4883
5049
4716
3920
2742
1305
-245
-1754
-3072
-4074
-4662
-4781
-4419
-3608
-2425
-983
576
2097
3424
4420
4983
5052
4623
3739
2492
1012
-550
-2038
-3306
-4230
-4723
-4738
-4276
-3378
-2131
-655
904
2390
3651
4557
5015
4975
4443
3473
2166
657
-900
-2351
-3552
-4389
-4784
-4702
-4151
-3183
-1889
-395
1154
2605
3807
4637
5007
4878
4261
3220
1861
322
-1241
-2672
-3830
-4602
-4915
-4737
-4087
-3026
-1658
-116
1446
2873
4019
4767
5041
4812
4103
2985
1572
  4
-1558
-2962
-4067
-4763
-4983
-4706
-3960
-2817
-1390
179
1735
3123
4203
4866
5044
4721
3929
2751
1305
-261
-1794
-3141
-4171
-4784
-4919
-4564
-3751
-2559
-1103
471
2007
3349
4360
4937
5022
4606
3734
2496
1019
-545
-2040
-3319
-4257
-4767
-4799
-4350
-3463
-2221
-744
821
2318
3595
4521
4999
4981
4468
3515
2222
723
-828
-2278
-3482
-4325
-4729
-4657
-4116
-3159
-1874
-386
1160
2609
3814
4649
5025
4904
4296
3262
1908
373
-1189
-2624
-3788
-4570
-4893
-4727
-4089
-3038
-1676
-136
1427
2860
4016
4777
5065
4851
4155
3047
1639
 73
-1493
-2905
-4022
-4734
-4970
-4709
-3975
-2842
-1420
149
1712
3110
4203
4882
5075
4765
3981
2803
1348
-236
-1792
-3163
-4215
-4841
-4980
-4620
-3795
-2588
-1119
466
2009
3355
4369
4950
5038
4627
3760
2526
1053
-509
-2004
-3286
-4231
-4748
-4790
-4353
-3476
-2244
-774
788
2287
3570
4507
4999
4996
4498
3557
2271
771
-789
-2255
-3481
-4350
-4780
-4730
-4205
-3254
-1967
-468
1094
2565
3794
4653
5053
4952
4360
3338
1990
455
-1112
-2556
-3733
-4529
-4867
-4715
-4088
-3047
-1691
-154
1411
2848
4011
4782
5082
4880
4196
3099
1699
137
-1429
-2845
-3969
-4692
-4941
-4694
-3975
-2855
-1443
119
1678
3076
4174
4859
5062
4762
3988
2818
1370
-211
-1767
-3143
-4200
-4834
-4982
-4629
-3811
-2608
-1139
448
1997
3351
4376
4967
5066
4665
3805
2577
1107
-454
-1952
-3238
-4188
-4712
-4761
-4330
-3460
-2234
-770
787
2282
3564
4500
4994
4995
4504
3570
2291
797
-758
-2221
-3448
-4322
-4758
-4717
-4203
-3262
-1984
-491
1070
2542
3777
4644
5055
4964
4380
3362
2014
472
-1106
-2565
-3760
-4576
-4933
-4797
-4182
-3147
-1793
-252
1321
2769
3946
4731
5044
4852
4176
3083
1683
119
-1452
-2876
-4010
-4742
-5002
-4764
-4053
-2939
-1530
 32
1595
3002
4111
4811
5031
4749
3992
2836
1398
-178
-1737
-3121
-4194
-4850
-5023
-4696
-3903
-2721
-1267
313
1864
3230
4273
4890
5018
4645
3812
2605
1148
-410
-1913
-3212
-4184
-4733
-4810
-4406
-3558
-2347
-888
673
2183
3487
4452
4978
5010
4546
3633
2367
877
-682
-2158
-3404
-4300
-4762
-4745
-4253
-3330
-2063
-576
985
2464
3710
4593
5021
4949
4384
3385
2055
531
-1029
-2471
-3653
-4460
-4818
-4695
-4104
-3102
-1783
-274
1276
2714
3893
4692
5026
4860
4208
3135
1751
193
-1380
-2814
-3964
-4718
-5000
-4784
-4091
-2987
-1583
-16
1556
2979
4109
4830
5071
4806
4062
2915
1478
-102
-1670
-3068
-4158
-4831
-5023
-4714
-3935
-2763
-1314
266
1823
3199
4257
4890
5035
4680
3861
2663
1211
-347
-1856
-3167
-4153
-4720
-4815
-4428
-3596
-2397
-946
614
2126
3438
4414
4952
4999
4548
3647
2390
905
-655
-2136
-3391
-4301
-4778
-4778
-4302
-3392
-2136
-654
908
2393
3651
4551
4999
4950
4407
3427
2112
599
-959
-2404
-3595
-4417
-4792
-4687
-4114
-3125
-1816
-311
1240
2686
3878
4693
5045
4898
4266
3211
1843
300
-1262
-2689
-3839
-4603
-4905
-4718
-4060
-2993
-1620
-76
1484
2907
4045
4784
5046
4803
4080
2950
1526
-47
-1615
-3019
-4121
-4815
-5031
-4749
-3996
-2846
-1412
164
1727
3118
4199
4859
5032
4702
3903
2721
1277
-280
-1795
-3118
-4120
-4707
-4822
-4454
-3638
-2449
-1004
557
2077
3402
4396
4955
5022
4591
3706
2460
980
-581
-2071
-3340
-4268
-4767
-4790
-4335
-3445
-2204
-732
826
2313
3579
4491
4956
4925
4401
3438
2137
632
-922
-2371
-3572
-4408
-4803
-4720
-4168
-3200
-1906
-412
1136
2585
3787
4617
4989
4862
4250
3214
1860
326
-1232
-2660
-3816
-4588
-4902
-4727
-4080
-3023
-1659
-120
1438
2863
4007
4755
5029
4802
4097
2984
1578
 19
-1535
-2932
-4033
-4730
-4955
-4686
-3951
-2819
-1402
158
1710
3096
4177
4843
5027
4709
3924
2750
1309
-254
-1785
-3132
-4162
-4775
-4913
-4560
-3749
-2559
-1106
465
1999
3338
4347
4923
5007
4592
3722
2487
1014
-545
-2037
-3314
-4253
-4766
-4803
-4361
-3481
-2246
-775
786
2284
3564
4495
4980
4970
4465
3518
2227
726
-832
-2292
-3509
-4366
-4781
-4716
-4178
-3217
-1924
-424
1135
2597
3813
4659
5044
4930
4326
3295
1942
404
-1162
-2602
-3772
-4561
-4890
-4730
-4096
-3048
-1689
-151
1412
2845
4001
4765
5056
4847
4157
3056
1657
 98
-1461
-2868
-3982
-4693
-4931
-4675
-3948
-2823
-1409
153
1711
3107
4203
4887
5089
4789
4016
2848
1400
-180
-1736
-3113
-4172
-4810
-4964
-4617
-3804
-2606
-1142
442
1989
3344
4369
4963
5065
4667
3811
2586
1118
-441
-1937
-3221
-4168
-4690
-4735
-4301
-3426
-2194
-724
839
2339
3623
4559
5049
5043
4542
3597
2308
807
-752
-2216
-3438
-4303
-4730
-4678
-4156
-3211
-1935
-451
1094
2546
3756
4599
4987
4877
4280
3256
1909
375
-1191
-2635
-3814
-4614
-4959
-4814
-4195
-3160
-1810
-278
1283
2717
3879
4650
4949
4748
4065
2971
1575
 21
-1535
-2939
-4049
-4754
-4987
-4722
-3988
-2854
-1433
135
1696
3093
4186
4864
5060
4752
3971
2795
1343
-239
-1795
-3167
-4221
-4850
-4994
-4637
-3816
-2611
-1143
443
1989
3340
4361
4950
5047
4645
3785
2558
1090
-469
-1965
-3249
-4199
-4723
-4774
-4345
-3478
-2253
-788
771
2270
3555
4495
4992
4993
4499
3561
2275
774
-788
-2257
-3488
-4363
-4797
-4752
-4230
-3282
-1995
-495
1072
2549
3786
4655
5065
4973
4389
3371
2025
487
-1086
-2539
-3727
-4534
-4882
-4739
-4118
-3079
-1722
-182
1387
2829
3998
4773
5075
4873
4187
3087
1683
117
-1454
-2875
-4003
-4730
-4983
-4740
-4024
-2908
-1499
 61
1620
3021
4123
4816
5029
4740
3977
2818
1379
-196
-1751
-3128
-4191
-4835
-4995
-4655
-3849
-2656
-1196
387
1934
3292
4322
4921
5030
4638
3788
2567
1101
-457
-1955
-3243
-4198
-4727
-4783
-4358
-3494
-2270
-806
755
2257
3547
4492
4995
5003
4517
3586
2308
815
-741
-2207
-3436
-4312
-4752
-4715
-4207
-3273
-2004
-520
1030
2494
3721
4584
4993
4904
4327
3319
1983
456
-1108
-2554
-3739
-4545
-4896
-4758
-4143
-3110
-1760
-224
1344
2788
3961
4744
5056
4866
4192
3102
1707
146
-1423
-2846
-3980
-4715
-4979
-4746
-4039
-2929
-1523
 39
1603
3014
4129
4837
5066
4791
4042
2892
1458
-116
-1673
-3057
-4130
-4787
-4962
-4640
-3852
-2677
-1229
346
1894
3259
4303
4921
5050
4679
3845
2636
1177
-384
-1891
-3195
-4171
-4725
-4805
-4403
-3556
-2345
-885
679
2191
3497
4463
4988
5017
4549
3632
2362
869
-694
-2172
-3418
-4315
-4776
-4760
-4268
-3347
-2082
-597
962
2441
3688
4575
5009
4944
4388
3396
2071
550
-1011
-2457
-3644
-4460
-4826
-4711
-4126
-3126
-1807
-294
1262
2708
3896
4704
5046
4886
4239
3171
1793
242
-1322
-2746
-3890
-4642
-4930
-4728
-4055
-2975
-1594
-46
1514
2930
4060
4786
5035
4780
4047
2910
1483
-89
-1650
-3042
-4127
-4799
-4990
-4684
-3910
-2746
-1306
265
1815
3187
4243
4877
5025
4674
3861
2670
1224
-329
-1836
-3147
-4136
-4710
-4813
-4437
-3615
-2424
-979
577
2090
3405
4388
4935
4991
4549
3656
2406
928
-626
-2101
-3351
-4256
-4731
-4733
-4260
-3358
-2110
-637
918
2399
3656
4558
5010
4964
4424
3446
2131
614
-948
-2401
-3600
-4431
-4816
-4722
-4157
-3177
-1874
-373
1177
2624
3818
4637
4994
4851
4222
3170
1804
261
-1301
-2729
-3881
-4646
-4950
-4763
-4103
-3033
-1656
-107
1459
2888
4034
4778
5046
4810
4092
2967
1548
-21
-1584
-2983
-4081
-4770
-4981
-4696
-3941
-2791
-1359
213
1770
3153
4224
4874
5037
4698
3893
2706
1261
-296
-1808
-3126
-4123
-4704
-4814
-4444
-3626
-2437
-993
565
2081
3402
4390
4945
5008
4575
3691
2447
974
-580
-2060
-3320
-4239
-4732
-4752
-4298
-3411
-2175
-708
845
2331
3598
4515
4987
4965
4449
3494
2198
694
-862
-2317
-3525
-4371
-4775
-4700
-4154
-3188
-1892
-392
1165
2624
3836
4676
5055
4933
4320
3280
1919
375
-1195
-2636
-3806
-4591
-4916
-4749
-4108
-3053
-1686
-141
1427
2863
4021
4781
5068
4850
4149
3037
1626
 58
-1508
-2917
-4028
-4731
-4958
-4687
-3945
-2805
-1380
188
1745
3134
4216
4880
5061
4739
3949
2770
1323
-246
-1782
-3133
-4168
-4786
-4928
-4578
-3769
-2579
-1124
451
1990
3336
4352
4935
5025
4614
3746
2511
1035
-529
-2028
-3313
-4262
-4783
-4829
-4395
-3521
-2289
-818
747
2251
3541
4484
4981
4983
4488
3549
2263
764
-794
-2257
-3479
-4342
-4764
-4708
-4178
-3225
-1940
-447
1107
2566
3782
4630
5020
4912
4316
3295
1951
422
-1138
-2576
-3749
-4544
-4883
-4736
-4115
-3080
-1731
-198
1364
2801
3967
4743
5047
4849
4167
3069
1666
 99
-1475
-2900
-4034
-4764
-5020
-4775
-4055
-2931
-1513
 57
1625
3033
4141
4835
5046
4753
3985
2819
1373
-208
-1766
-3145
-4207
-4847
-5002
-4656
-3845
-2648
-1184
400
1948
3304
4332
4928
5035
4642
3791
2571
1107
-449
-1945
-3232
-4186
-4717
-4775
-4354
-3492
-2272
-809
752
2256
3550
4500
5008
5020
4537
3606
2327
829
-732
-2203
-3437
-4317
-4758
-4721
-4209
-3270
-1993
-502
1057
2529
3763
4632
5044
4957
4380
3370
2032
502
-1065
-2515
-3704
-4516
-4874
-4743
-4135
-3109
-1764
-233
1333
2777
3952
4739
5055
4869
4199
3111
1717
155
-1415
-2840
-3977
-4714
-4978
-4745
-4037
-2925
-1517
 45
1611
3021
4135
4840
5065
4788
4034
2881
1443
-135
-1695
-3083
-4159
-4817
-4991
-4666
-3872
-2689
-1234
347
1898
3263
4305
4919
5043
4667
3832
2623
1167
-388
-1888
-3184
-4151
-4698
-4774
-4371
-3526
-2318
-864
694
2200
3502
4465
4989
5021
4557
3645
2380
894
-663
-2135
-3378
-4271
-4732
-4717
-4228
-3311
-2053
-574
978
2452
3694
4578
5011
4948
4395
3410
2094
584
-965
-2400
-3578
-4387
-4750
-4635
-4054
-3061
-1751
-248
1300
2738
3921
4724
5062
4900
4252
3184
1804
253
-1312
-2736
-3879
-4629
-4915
-4710
-4034
-2952
-1569
-20
1540
2956
4084
4807
5053
4795
4059
2920
1493
-77
-1634
-3024
-4108
-4779
-4973
-4671
-3901
-2738
-1298
277
1831
3209
4270
4908
5058
4708
3893
2700
1251
-305
-1813
-3125
-4114
-4685
-4786
-4406
-3579
-2384
-936
624
2139
3456
4439
4985
5038
4593
3696
2442
959
-599
-2078
-3331
-4239
-4717
-4719
-4248
-3347
-2099
-625
930
2413
3672
4577
5033
4993
4459
3487
2177
665
-894
-2346
-3547
-4381
-4771
-4681
-4121
-3143
-1840
-336
1220
2675
3878
4705
5069
4931
4304
3253
1884
338
-1228
-2659
-3815
-4582
-4887
-4703
-4047
-2983
-1613
-73
1484
2904
4041
4781
5047
4811
4098
2979
1568
  6
-1550
-2945
-4043
-4734
-4951
-4673
-3927
-2784
-1358
210
1765
3151
4226
4882
5052
4720
3920
2736
1289
-271
-1790
-3118
-4127
-4720
-4842
-4481
-3670
-2484
-1037
527
2054
3388
4392
4962
5040
4619
3742
2502
1026
-534
-2023
-3294
-4226
-4729
-4758
-4310
-3426
-2190
-721
836
2326
3596
4516
4990
4968
4452
3497
2200
697
-858
-2311
-3517
-4360
-4762
-4684
-4137
-3171
-1877
-381
1172
2625
3832
4666
5040
4913
4299
3259
1900
361
-1203
-2636
-3798
-4576
-4895
-4724
-4082
-3028
-1665
-125
1438
2869
4023
4782
5069
4854
4157
3048
1639
 72
-1496
-2910
-4028
-4739
-4973
-4709
-3972
-2834
-1408
163
1725
3120
4209
4881
5068
4753
3967
2792
1347
-221
-1758
-3111
-4149
-4770
-4916
-4571
-3766
-2580
-1127
447
1986
3335
4356
4945
5043
4639
3777
2547
1075
-489
-1989
-3278
-4230
-4758
-4809
-4381
-3511
-2282
-813
752
2258
3549
4494
4995
4998
4505
3568
2282
783
-778
-2244
-3470
-4338
-4766
-4714
-4188
-3237
-1950
-453
1108
2578
3805
4664
5063
4962
4370
3348
1998
460
-1112
-2562
-3748
-4554
-4902
-4761
-4143
-3107
-1753
-213
1358
2805
3981
4765
5076
4883
4203
3106
1701
132
-1444
-2871
-4004
-4733
-4986
-4737
-4014
-2886
-1466
104
1670
3075
4177
4865
5071
4773
4002
2836
1391
-186
-1740
-3116
-4176
-4817
-4975
-4636
-3832
-2643
-1186
393
1940
3298
4333
4941
5059
4679
3840
2629
1172
-383
-1881
-3174
-4138
-4681
-4752
-4343
-3492
-2280
-822
737
2242
3540
4495
5009
5027
4549
3623
2346
849
-715
-2189
-3429
-4315
-4762
-4729
-4219
-3280
-2001
-505
1060
2539
3780
4655
5074
4993
4419
3414
2082
559
-998
-2435
-3611
-4412
-4764
-4636
-4041
-3034
-1713
-204
1345
2779
3952
4744
5072
4901
4247
3174
1791
236
-1335
-2766
-3914
-4667
-4951
-4738
-4049
-2953
-1557
  0
1563
2977
4099
4817
5057
4795
4057
2918
1491
-78
-1634
-3023
-4104
-4772
-4960
-4650
-3872
-2703
-1259
316
1868
3240
4295
4926
5070
4715
3896
2700
1250
-307
-1817
-3130
-4120
-4692
-4794
-4414
-3587
-2390
-939
623
2141
3459
4441
4985
5034
4582
3676
2410
914
-659
-2152
-3417
-4333
-4813
-4811
-4328
-3409
-2140
-643
933
2433
3701
4609
5061
5011
4465
3480
2159
639
-923
-2372
-3566
-4389
-4765
-4663
-4091
-3106
-1801
-301
1246
2687
3873
4683
5031
4879
4242
3185
1814
270
-1292
-2716
-3863
-4620
-4915
-4722
-4058
-2987
-1613
-71
1485
2903
4037
4772
5033
4793
4076
2953
1537
-28
-1588
-2986
-4084
-4774
-4987
-4704
-3952
-2804
-1374
196
1753
3138
4213
4869
5039
4707
3907
2721
1271
-296
-1826
-3166
-4185
-4786
-4909
-4543
-3720
-2522
-1065
505
2032
3361
4356
4916
4985
4558
3678
2439
968
-584
-2064
-3326
-4247
-4742
-4763
-4308
-3420
-2180
-709
850
2341
3612
4532
5004
4981
4463
3505
2205
699
-859
-2314
-3522
-4368
-4771
-4696
-4151
-3186
-1892
-395
1159
2616
3826
4663
5039
4915
4301
3260
1898
355
-1213
-2650
-3814
-4593
-4910
-4737
-4091
-3033
-1668
-128
1432
2857
4003
4751
5025
4797
4091
2978
1571
 12
-1541
-2936
-4033
-4726
-4946
-4671
-3927
-2787
-1361
208
1767
3158
4242
4909
5091
4770
3979
2799
1350
-220
-1759
-3113
-4151
-4771
-4915
-4568
-3762
-2576
-1125
445
1979
3321
4335
4918
5011
4606
3746
2521
1056
-497
-1985
-3261
-4203
-4721
-4768
-4338
-3472
-2251
-793
758
2248
3525
4456
4945
4942
4446
3509
2229
736
-815
-2272
-3490
-4353
-4779
-4728
-4204
-3258
-1977
-485
1071
2537
3764
4624
5029
4935
4352
3338
1998
469
-1096
-2541
-3722
-4526
-4875
-4737
-4124
-3096
-1752
-224
1336
2771
3936
4711
5015
4819
4139
3044
1644
 80
-1492
-2916
-4050
-4783
-5043
-4805
-4092
-2974
-1562
  6
1575
2987
4102
4806
5029
4749
3993
2838
1400
-176
-1733
-3117
-4191
-4848
-5025
-4704
-3916
-2739
-1287
292
1845
3214
4262
4884
5017
4649
3820
2617
1164
-390
-1890
-3189
-4160
-4713
-4794
-4396
-3556
-2352
-901
653
2156
3454
4413
4934
4963
4497
3585
2322
838
-715
-2183
-3421
-4311
-4769
-4752
-4263
-3347
-2090
-614
935
2405
3643
4524
4954
4889
4335
3349
2033
525
-1023
-2455
-3630
-4435
-4796
-4679
-4097
-3105
-1797
-297
1245
2677
3853
4650
4985
4821
4172
3104
1724
170
-1401
-2834
-3987
-4745
-5035
-4827
-4142
-3048
-1650
-88
1483
2908
4044
4777
5031
4782
4056
2925
1504
-62
-1618
-3008
-4094
-4770
-4971
-4676
-3914
-2761
-1328
240
1791
3168
4231
4873
5029
4684
3875
2684
1237
-321
-1833
-3150
-4146
-4725
-4833
-4458
-3635
-2441
-992
570
2088
3409
4394
4944
5001
4559
3667
2416
937
-619
-2096
-3349
-4259
-4740
-4750
-4288
-3397
-2162
-700
844
2318
3571
4474
4931
4895
4368
3404
2104
602
-948
-2393
-3588
-4420
-4810
-4723
-4167
-3195
-1897
-399
1152
2603
3804
4632
4998
4864
4242
3195
1831
287
-1278
-2711
-3869
-4639
-4948
-4765
-4109
-3043
-1670
-124
1439
2865
4008
4752
5021
4787
4075
2956
1545
-15
-1569
-2961
-4054
-4740
-4953
-4672
-3924
-2782
-1357
209
1763
3149
4227
4888
5065
4741
3948
2768
1322
-245
-1778
-3125
-4154
-4765
-4899
-4542
-3726
-2531
-1074
499
2032
3366
4367
4930
4999
4568
3682
2434
953
-608
-2095
-3360
-4283
-4776
-4795
-4338
-3448
-2209
-736
824
2319
3596
4524
5006
4991
4481
3529
2234
731
-827
-2284
-3496
-4346
-4755
-4686
-4145
-3184
-1892
-395
1161
2621
3835
4677
5060
4942
4335
3300
1945
405
-1161
-2599
-3767
-4551
-4875
-4710
-4070
-3017
-1652
-109
1458
2895
4056
4821
5114
4904
4213
3111
1709
149
-1412
-2820
-3935
-4648
-4890
-4636
-3912
-2788
-1374
190
1749
3147
4243
4925
5124
4818
4038
2862
1408
-179
-1740
-3120
-4180
-4816
-4965
-4612
-3793
-2589
-1120
466
2013
3365
4386
4974
5070
4666
3805
2577
1109
-448
-1942
-3222
-4168
-4688
-4733
-4301
-3429
-2201
-734
827
2327
3613
4552
5046
5043
4545
3603
2316
816
-740
-2199
-3416
-4274
-4692
-4634
-4104
-3155
-1874
-386
1162
2617
3831
4676
5064
4955
4359
3335
1989
458
-1104
-2543
-3717
-4511
-4850
-4702
-4080
-3045
-1695
-162
1401
2838
4005
4781
5087
4891
4211
3118
1721
159
-1407
-2826
-3954
-4680
-4935
-4692
-3977
-2859
-1449
113
1675
3078
4184
4879
5094
4806
4044
2884
1444
-132
-1687
-3065
-4127
-4770
-4930
-4592
-3788
-2600
-1143
435
1981
3337
4367
4967
5076
4684
3832
2608
1139
-426
-1931
-3227
-4190
-4729
-4793
-4376
-3516
-2296
-833
730
2236
3532
4485
4995
5010
4530
3603
2328
835
-721
-2187
-3417
-4293
-4732
-4693
-4181
-3243
-1968
-480
1075
2543
3772
4637
5048
4960
4384
3377
2042
514
-1051
-2500
-3690
-4505
-4867
-4741
-4139
-3118
-1777
-246
1322
2771
3954
4749
5075
4898
4235
3152
1759
195
-1380
-2812
-3957
-4702
-4974
-4746
-4042
-2932
-1524
 41
1608
3019
4133
4836
5057
4774
4014
2855
1414
-164
-1723
-3105
-4175
-4827
-4997
-4667
-3871
-2686
-1230
353
1905
3271
4315
4931
5059
4687
3855
2650
1196
-359
-1862
-3163
-4139
-4697
-4783
-4391
-3554
-2351
-898
664
2178
3491
4466
5002
5044
4587
3678
2412
920
-646
-2129
-3383
-4286
-4754
-4742
-4253
-3331
-2065
-578
984
2465
3713
4599
5031
4965
4406
3413
2089
571
-987
-2430
-3616
-4431
-4799
-4687
-4105
-3109
-1792
-283
1271
2715
3901
4707
5048
4889
4244
3177
1797
242
-1330
-2765
-3918
-4675
-4963
-4753
-4067
-2971
-1573
-12
1557
2978
4107
4831
5076
4816
4078
2935
1502
-74
-1638
-3032
-4118
-4788
-4977
-4667
-3890
-2723
-1280
294
1844
3215
4269
4900
5045
4690
3873
2680
1233
-320
-1824
-3132
-4117
-4688
-4789
-4412
-3590
-2400
-957
597
2109
3424
4406
4954
5010
4569
3676
2423
940
-622
-2109
-3375
-4297
-4789
-4806
-4347
-3454
-2214
-746
804
2280
3531
4428
4877
4830
4292
3319
2011
503
-1049
-2492
-3683
-4509
-4892
-4798
-4236
-3261
-1963
-467
1080
2525
3721
4543
4906
4772
4153
3114
1762
234
-1314
-2729
-3871
-4627
-4926
-4739
-4082
-3019
-1651
-112
1445
2865
4005
4747
5014
4780
4066
2944
1529
-37
-1598
-2997
-4095
-4784
-4998
-4714
-3962
-2814
-1384
186
1741
3124
4196
4847
5013
4676
3874
2690
1246
-309
-1821
-3141
-4141
-4726
-4841
-4474
-3660
-2474
-1030
528
2048
3372
4366
4926
4994
4566
3684
2442
968
-588
-2071
-3335
-4256
-4750
-4769
-4311
-3420
-2179
-708
848
2336
3604
4522
4995
4974
4461
3510
2218
720
-832
-2284
-3491
-4339
-4748
-4681
-4143
-3186
-1898
-404
1150
2609
3822
4665
5046
4927
4316
3277
1915
370
-1203
-2647
-3820
-4609
-4936
-4772
-4133
-3079
-1714
-171
1395
2828
3984
4742
5026
4806
4105
2993
1584
 20
-1540
-2944
-4051
-4752
-4981
-4714
-3978
-2846
-1427
136
1690
3078
4161
4830
5016
4699
3913
2734
1282
-298
-1849
-3216
-4264
-4888
-5026
-4665
-3841
-2634
-1164
422
1967
3316
4334
4919
5012
4605
3741
2510
1039
-522
-2018
-3300
-4245
-4764
-4808
-4373
-3498
-2269
-801
758
