1240
1186
1176
1259
1347
1343
1270
1241
1304
1375
1355
1268
1231
1301
1398
1410
1339
1292
1336
1412
1416
1345
1300
1352
1446
1470
1403
1342
1370
1451
1476
1414
1356
1388
1481
1522
1468
1398
1411
1495
1543
1500
1435
1449
1536
1592
1549
1468
1459
1534
1596
1564
1486
1470
1541
1609
1585
1506
1478
1543
1615
1598
1518
1486
1549
1632
1629
1551
1507
1559
1642
1648
1577
1533
1585
1673
1685
1607
1543
1577
1662
1684
1613
1546
1574
1663
1697
1635
1564
1583
1672
1718
1665
1591
1599
1685
1736
1686
1600
1588
1664
1722
1685
1604
1591
1669
1741
1717
1637
1613
1682
1756
1740
1661
1629
1691
1767
1756
1672
1626
1676
1754
1754
1678
1631
1678
1759
1766
1690
1632
1668
1750
1768
1702
1646
1680
1767
1794
1728
1658
1678
1761
1797
1740
1670
1685
1769
1814
1760
1678
1673
1749
1799
1758
1683
1679
1759
1822
1790
1711
1694
1764
1829
1803
1725
1703
1773
1846
1826
1738
1694
1748
1822
1814
1733
1688
1739
1820
1824
1746
1691
1730
1811
1826
1756
1700
1734
1817
1840
1774
1709
1732
1812
1842
1781
1712
1728
1808
1845
1787
1706
1703
1778
1824
1779
1705
1706
1787
1845
1806
1722
1705
1777
1842
1813
1732
1707
1773
1839
1816
1731
1695
1752
1823
1808
1727
1688
1747
1830
1830
1751
1699
1742
1822
1830
1756
1700
1738
1817
1826
1746
1682
1718
1807
1825
1748
1682
1719
1815
1841
1763
1687
1713
1800
1823
1754
1711
1802
1974
2074
2042
1985
2034
2174
2264
2219
2113
2074
2128
2180
2142
2052
2018
2077
2144
2124
2038
2001
2068
2155
2137
2021
1953
2049
2235
2319
2229
2097
2089
2196
2248
2144
1979
1910
1954
1987
1940
1894
1947
2052
2053
1903
1737
1703
1774
1783
1652
1491
1453
1545
1630
1618
1568
1583
1663
1705
1648
1566
1562
1635
1687
1649
1575
1564
1631
1696
1686
1630
1615
1675
1750
1762
1711
1677
1720
1816
1885
1898
1914
2014
2210
2441
2659
2889
3188
3553
3913
4223
4522
4877
5276
5610
5789
5832
5819
5760
5570
5174
4613
3987
3343
2638
1855
1092
476
27
-352
-726
-1033
-1152
-1068
-904
-785
-703
-565
-324
-48
177
342
505
688
853
958
1022
1100
1201
1277
1290
1277
1308
1397
1472
1463
1389
1342
1379
1456
1483
1439
1395
1422
1504
1568
1587
1609
1681
1778
1829
1821
1821
1880
1956
1962
1878
1789
1786
1855
1896
1855
1788
1789
1866
1928
1902
1823
1794
1849
1905
1875
1786
1751
1822
1917
1915
1816
1746
1802
1935
2013
1998
1980
2053
2180
2250
2223
2177
2193
2241
2230
2147
2083
2110
2184
2200
2133
2064
2075
2150
2208
2220
2235
2296
2376
2414
2402
2396
2437
2495
2496
2419
2328
2302
2349
2399
2377
2288
2201
2166
2154
2107
2015
1933
1907
1909
1878
1813
1791
1866
1970
1976
1851
1704
1660
1700
1694
1575
1435
1408
1489
1540
1471
1354
1315
1362
1373
1272
1132
1078
1130
1182
1161
1121
1154
1251
1304
1259
1190
1201
1284
1329
1273
1191
1194
1288
1362
1340
1272
1265
1334
1386
1348
1269
1260
1342
1419
1402
1326
1298
1358
1425
1408
1333
1307
1374
1458
1457
1385
1346
1400
1481
1486
1417
1376
1430
1521
1537
1466
1407
1442
1529
1557
1494
1434
1464
1554
1590
1530
1456
1468
1552
1594
1539
1461
1465
1547
1601
1557
1478
1471
1548
1608
1575
1502
1497
1577
1643
1612
1528
1505
1575
1647
1625
1545
1518
1587
1667
1656
1573
1529
1582
1659
1656
1579
1535
1587
1670
1678
1603
1547
1585
1667
1682
1610
1548
1580
1667
1693
1624
1553
1572
1660
1703
1652
1584
1599
1684
1730
1678
1598
1594
1670
1720
1673
1591
1583
1661
1725
1691
1608
1587
1661
1734
1714
1635
1609
1678
1757
1744
1658
1611
1659
1733
1727
1648
1599
1646
1726
1732
1656
1599
1637
1721
1740
1674
1618
1655
1744
1772
1705
1634
1652
1734
1767
1708
1637
1650
1732
1772
1716
1637
1640
1720
1768
1720
1642
1641
1725
1786
1744
1654
1632
1706
1778
1755
1676
1650
1717
1790
1773
1689
1650
1705
1778
1766
1685
1642
1694
1773
1772
1691
1635
1674
1752
1759
1686
1630
1669
1753
1771
1700
1632
1657
1740
1772
1714
1652
1674
1758
1796
1738
1665
1674
1755
1801
1751
1673
1671
1749
1803
1760
1675
1658
1730
1791
1760
1678
1659
1731
1802
1773
1677
1638
1708
1797
1789
1696
1643
1706
1804
1809
1715
1644
1687
1775
1779
1693
1654
1764
1945
2028
1972
1912
1985
2147
2228
2153
2031
2011
2095
2144
2075
1967
1958
2057
2127
2072
1965
1952
2057
2138
2073
1927
1886
2029
2215
2252
2134
2031
2070
2176
2179
2044
1906
1883
1927
1915
1838
1815
1910
2015
1972
1794
1649
1658
1735
1710
1557
1421
1429
1527
1571
1521
1482
1540
1635
1639
1540
1460
1496
1595
1622
1546
1475
1506
1603
1650
1603
1547
1571
1658
1709
1676
1621
1624
1696
1769
1796
1810
1873
2009
2183
2368
2582
2857
3191
3532
3842
4143
4484
4872
5251
5539
5710
5792
5808
5727
5492
5089
4559
3956
3288
2544
1761
1037
448
-16
-424
-796
-1066
-1161
-1094
-964
-849
-735
-569
-336
-91
126
321
514
696
830
915
996
1104
1210
1257
1245
1245
1309
1406
1453
1416
1350
1335
1386
1442
1444
1407
1393
1434
1497
1535
1556
1603
1691
1774
1800
1787
1806
1883
1954
1936
1838
1764
1789
1865
1880
1808
1741
1772
1869
1913
1853
1772
1779
1860
1898
1834
1747
1755
1854
1922
1872
1769
1741
1827
1932
1966
1954
1989
2094
2190
2205
2173
2177
2228
2246
2177
2082
2063
2129
2186
2155
2077
2044
2086
2141
2154
2156
2206
2300
2367
2364
2340
2369
2450
2506
2468
2370
2302
2312
2361
2373
2323
2249
2198
2173
2131
2054
1971
1923
1908
1879
1811
1749
1764
1859
1940
1911
1785
1673
1651
1670
1623
1494
1377
1367
1430
1448
1379
1293
1276
1303
1279
1176
1070
1045
1078
1086
1051
1043
1110
1196
1205
1139
1098
1148
1231
1238
1160
1102
1146
1242
1278
1226
1178
1213
1294
1312
1242
1174
1200
1291
1335
1285
1219
1232
1312
1355
1307
1241
1256
1345
1402
1358
1277
1267
1343
1402
1367
1289
1276
1353
1422
1396
1313
1287
1356
1433
1418
1338
1306
1371
1454
1450
1371
1326
1377
1457
1463
1393
1348
1396
1479
1489
1416
1357
1392
1472
1490
1424
1365
1396
1481
1508
1442
1371
1387
1468
1504
1448
1378
1392
1477
1525
1476
1400
1401
1482
1538
1499
1423
1418
1497
1563
1531
1448
1424
1491
1561
1542
1467
1441
1503
1573
1555
1473
1432
1483
1556
1548
1470
1426
1479
1564
1574
1504
1453
1494
1576
1594
1528
1473
1507
1590
1612
1543
1472
1491
1572
1605
1545
1474
1488
1573
1617
1564
1487
1490
1572
1626
1585
1509
1508
1590
1652
1613
1526
1503
1572
1637
1609
1527
1502
1571
1644
1626
1540
1501
1560
1640
1636
1559
1516
1570
1653
1657
1581
1528
1569
1649
1661
1589
1532
1567
1650
1668
1595
1521
1538
1616
1644
1583
1514
1531
1614
1655
1600
1523
1525
1603
1651
1606
1530
1528
1607
1665
1627
1545
1527
1597
1658
1627
1544
1519
1586
1654
1629
1540
1501
1560
1637
1627
1545
1501
1554
1634
1633
1555
1504
1550
1632
1641
1567
1514
1555
1641
1656
1580
1510
1534
1617
1645
1582
1516
1540
1630
1673
1615
1533
1538
1626
1681
1628
1537
1531
1621
1691
1647
1550
1531
1615
1683
1635
1539
1549
1705
1865
1891
1818
1807
1927
2066
2080
1983
1914
1950
2017
2000
1907
1848
1892
1972
1979
1904
1848
1888
1975
1993
1906
1806
1816
1947
2077
2093
2012
1954
1985
2043
2025
1922
1824
1799
1804
1771
1722
1744
1846
1912
1836
1668
1564
1593
1645
1583
1428
1325
1357
1437
1444
1389
1383
1470
1552
1522
1418
1371
1434
1515
1502
1421
1389
1455
1536
1535
1475
1458
1525
1601
1600
1542
1516
1567
1644
1676
1672
1702
1802
1943
2083
2239
2466
2779
3123
3432
3712
4025
4407
4814
5163
5412
5581
5698
5739
5640
5371
4962
4462
3885
3205
2425
1627
927
370
-95
-534
-925
-1175
-1232
-1152
-1049
-965
-848
-647
-396
-174
 5
193
419
625
740
788
866
1015
1151
1174
1116
1110
1218
1349
1366
1272
1198
1238
1333
1361
1301
1254
1298
1385
1418
1390
1396
1499
1636
1695
1662
1643
1720
1841
1883
1806
1705
1690
1756
1799
1756
1685
1681
1751
1813
1795
1733
1712
1758
1806
1789
1725
1694
1737
1805
1818
1767
1715
1722
1781
1837
1865
1894
1958
2040
2092
2101
2105
2138
2175
2158
2080
2011
2017
2080
2111
2065
1994
1981
2033
2080
2081
2082
2145
2252
2315
2292
2252
2286
2387
2445
2386
2268
2211
2251
2308
2294
2218
2157
2148
2136
2062
1954
1887
1883
1881
1817
1720
1682
1746
1848
1882
1817
1716
1655
1637
1603
1517
1418
1368
1378
1393
1367
1316
1290
1297
1285
1216
1120
1062
1059
1061
1031
1006
1044
1133
1187
1154
1093
1100
1181
1238
1200
1120
1105
1180
1254
1239
1172
1157
1227
1294
1269
1185
1156
1227
1318
1322
1251
1211
1263
1344
1350
1280
1235
1285
1375
1396
1330
1274
1306
1387
1408
1343
1283
1313
1400
1435
1377
1311
1329
1415
1460
1413
1348
1363
1447
1495
1446
1368
1364
1439
1492
1453
1379
1377
1457
1519
1484
1402
1386
1463
1537
1513
1430
1402
1472
1550
1533
1442
1395
1449
1531
1530
1452
1407
1463
1555
1571
1499
1444
1483
1566
1582
1512
1451
1484
1567
1591
1523
1453
1475
1562
1600
1545
1479
1498
1587
1635
1582
1499
1494
1568
1616
1571
1492
1485
1561
1622
1588
1508
1492
1563
1628
1602
1524
1505
1576
1648
1627
1543
1505
1565
1640
1630
1549
1506
1560
1640
1640
1560
1505
1548
1631
1645
1578
1526
1568
1655
1675
1604
1536
1560
1643
1673
1611
1542
1562
1649
1690
1633
1554
1556
1634
1681
1634
1556
1552
1627
1680
1639
1558
1543
1614
1674
1642
1562
1545
1619
1693
1676
1597
1565
1626
1699
1686
1608
1572
1629
1707
1699
1614
1560
1604
1683
1687
1610
1557
1601
1686
1700
1625
1563
1599
1689
1716
1649
1581
1607
1696
1732
1668
1589
1594
1672
1714
1662
1589
1593
1671
1717
1666
1580
1566
1636
1691
1655
1577
1563
1637
1704
1678
1597
1569
1632
1703
1688
1614
1586
1649
1724
1714
1636
1596
1652
1729
1724
1644
1601
1657
1742
1740
1651
1590
1638
1731
1737
1644
1576
1645
1810
1920
1906
1856
1894
2022
2121
2107
2031
2001
2042
2073
2027
1944
1919
1978
2039
2016
1938
1906
1968
2045
2030
1926
1850
1901
2038
2132
2116
2052
2040
2082
2096
2033
1944
1900
1891
1850
1775
1747
1824
1933
1940
1816
1674
1634
1672
1666
1561
1439
1401
1440
1464
1434
1414
1469
1561
1588
1521
1445
1449
1518
1553
1504
1439
1443
1513
1562
1537
1489
1498
1569
1623
1604
1549
1542
1603
1672
1690
1684
1728
1847
1992
2117
2261
2497
2838
3196
3487
3739
4050
4462
4892
5222
5428
5580
5720
5782
5655
5332
4899
4423
3867
3158
2326
1524
878
371
-110
-595
-986
-1174
-1179
-1120
-1071
-992
-818
-575
-356
-193
-13
240
507
675
723
767
904
1090
1188
1154
1100
1153
1294
1388
1353
1266
1245
1311
1372
1356
1303
1301
1365
1421
1414
1389
1431
1553
1669
1694
1658
1664
1761
1874
1889
1797
1706
1710
1782
1810
1751
1680
1695
1782
1834
1789
1716
1714
1791
1840
1792
1703
1689
1767
1838
1813
1729
1693
1747
1819
1836
1826
1869
1982
2079
2089
2056
2074
2155
2204
2142
2027
1986
2051
2123
2096
2004
1966
2024
2090
2075
2022
2051
2186
2309
2308
2229
2217
2328
2451
2447
2326
2230
2247
2315
2316
2238
2174
2182
2203
2140
2004
1903
1903
1939
1899
1770
1666
1685
1796
1874
1844
1757
1698
1686
1658
1571
1459
1395
1393
1402
1372
1321
1301
1320
1325
1265
1164
1097
1092
1101
1064
1005
1001
1082
1178
1192
1128
1085
1132
1220
1239
1168
1101
1127
1216
1258
1212
1158
1184
1270
1306
1249
1178
1191
1279
1332
1288
1215
1217
1299
1355
1315
1237
1232
1317
1393
1372
1296
1275
1343
1411
1391
1314
1288
1353
1425
1410
1329
1291
1350
1432
1434
1366
1334
1396
1484
1492
1418
1365
1406
1486
1495
1421
1365
1404
1493
1517
1448
1382
1410
1502
1542
1485
1418
1438
1526
1570
1514
1432
1429
1505
1552
1505
1428
1428
1510
1572
1537
1457
1443
1517
1583
1558
1481
1461
1529
1597
1575
1492
1456
1511
1581
1567
1489
1453
1510
1592
1592
1514
1465
1513
1600
1614
1543
1486
1524
1610
1631
1560
1490
1512
1596
1628
1569
1502
1521
1606
1644
1585
1507
1510
1588
1632
1580
1503
1507
1595
1656
1617
1533
1520
1596
1660
1627
1543
1521
1591
1658
1632
1547
1515
1579
1653
1639
1557
1520
1578
1657
1652
1571
1520
1565
1642
1647
1574
1527
1574
1660
1674
1599
1534
1563
1646
1670
1605
1538
1562
1648
1685
1624
1550
1560
1643
1687
1634
1556
1558
1639
1694
1651
1568
1553
1624
1683
1649
1572
1555
1625
1687
1657
1572
1541
1602
1669
1651
1572
1542
1606
1687
1683
1604
1559
1608
1687
1691
1618
1571
1617
1700
1709
1633
1572
1604
1685
1703
1632
1568
1598
1688
1721
1657
1581
1592
1673
1714
1659
1583
1587
1668
1717
1665
1577
1567
1652
1723
1690
1602
1581
1663
1746
1721
1621
1575
1643
1727
1705
1598
1554
1660
1825
1898
1858
1828
1910
2047
2106
2057
2000
2015
2064
2049
1965
1907
1939
2011
2024
1962
1910
1937
2013
2041
1982
1897
1872
1933
2023
2075
2075
2058
2057
2061
2041
1993
1947
1918
1881
1812
1744
1749
1840
1930
1911
1790
1676
1654
1679
1643
1528
1424
1406
1436
1426
1376
1374
1461
1557
1554
1467
1413
1460
1538
1535
1452
1401
1451
1536
1548
1487
1454
1510
1597
1614
1557
1515
1553
1630
1661
1641
1646
1734
1871
1983
2070
2221
2500
2862
3190
3442
3699
4055
4494
4893
5174
5373
5569
5741
5775
5591
5251
4860
4426
3852
3089
2240
1482
884
365
-166
-670
-1019
-1164
-1182
-1177
-1152
-1037
-818
-578
-400
-254
-46
238
495
622
651
717
883
1065
1130
1077
1041
1127
1277
1346
1282
1194
1200
1287
1334
1285
1222
1249
1345
1393
1348
1310
1390
1557
1663
1635
1573
1619
1769
1872
1823
1699
1650
1715
1780
1744
1655
1631
1705
1779
1762
1689
1667
1728
1791
1768
1687
1647
1692
1761
1767
1714
1675
1695
1742
1758
1752
1784
1880
1987
2030
2007
2000
2063
2150
2159
2067
1967
1963
2040
2083
2030
1949
1944
2017
2059
2014
1966
2031
2186
2287
2251
2170
2193
2329
2432
2391
2269
2209
2250
2293
2253
2174
2150
2183
2178
2074
1940
1885
1911
1918
1832
1705
1649
1698
1783
1814
1783
1741
1714
1680
1604
1504
1426
1393
1380
1349
1304
1281
1293
1307
1273
1186
1101
1065
1065
1043
980
934
969
1066
1132
1106
1044
1043
1121
1186
1157
1075
1052
1121
1199
1190
1122
1101
1172
1253
1242
1156
1110
1165
1252
1261
1191
1144
1191
1277
1290
1219
1165
1207
1300
1331
1272
1214
1245
1333
1367
1308
1243
1264
1350
1392
1336
1260
1263
1340
1388
1344
1276
1282
1367
1426
1390
1314
1305
1381
1444
1413
1336
1318
1388
1456
1433
1354
1327
1391
1466
1455
1381
1349
1408
1483
1473
1392
1344
1393
1475
1483
1415
1371
1420
1509
1524
1450
1384
1412
1494
1518
1452
1386
1412
1501
1542
1487
1415
1423
1501
1540
1486
1410
1414
1494
1547
1506
1429
1424
1502
1566
1538
1464
1450
1521
1584
1553
1468
1436
1498
1569
1556
1485
1459
1523
1600
1592
1512
1465
1509
1581
1578
1503
1456
1504
1588
1600
1530
1473
1506
1585
1603
1534
1469
1493
1572
1598
1533
1461
1476
1561
1606
1558
1489
1497
1576
1621
1571
1490
1484
1559
1614
1574
1498
1493
1574
1643
1612
1525
1495
1559
1626
1605
1526
1497
1560
1634
1623
1546
1508
1562
1636
1630
1553
1509
1558
1636
1639
1565
1511
1551
1631
1645
1578
1522
1556
1636
1653
1580
1508
1527
1611
1649
1596
1530
1546
1628
1670
1618
1541
1539
1609
1650
1603
1532
1538
1623
1683
1644
1562
1547
1620
1684
1655
1573
1548
1613
1681
1660
1577
1542
1600
1674
1662
1582
1543
1601
1686
1688
1603
1540
1577
1662
1681
1607
1540
1569
1660
1694
1625
1544
1557
1647
1693
1630
1540
1551
1673
1792
1814
1784
1809
1917
2016
2026
1980
1968
2008
2028
1970
1884
1864
1922
1974
1949
1882
1864
1922
1986
1976
1901
1842
1857
1923
1982
2011
2028
2048
2052
2020
1968
1939
1941
1925
1844
1734
1688
1755
1868
1908
1833
1720
1662
1663
1645
1565
1471
1429
1434
1422
1369
1340
1396
1501
1550
1497
1417
1411
1477
1518
1469
1391
1387
1467
1528
1498
1431
1438
1531
1604
1573
1496
1489
1574
1646
1627
1578
1619
1764
1902
1957
2007
2194
2536
2903
3172
3385
3678
4096
4538
4878
5120
5353
5605
5773
5743
5520
5211
4871
4432
3798
2992
2168
1463
879
322
-242
-724
-1021
-1141
-1185
-1214
-1181
-1023
-776
-561
-427
-285
-32
293
534
608
617
723
936
1109
1121
1044
1045
1179
1319
1329
1235
1183
1240
1323
1318
1244
1218
1294
1384
1379
1307
1301
1429
1595
1654
1595
1559
1650
1805
1864
1779
1669
1664
1743
1774
1703
1624
1645
1742
1790
1735
1666
1685
1771
1807
1743
1661
1663
1741
1786
1745
1679
1679
1738
1770
1739
1714
1781
1919
2018
2012
1968
1998
2113
2198
2154
2029
1963
2015
2093
2078
1983
1932
1989
2070
2057
1973
1957
2081
2241
2283
2201
2150
2234
2380
2429
2345
2247
2244
2299
2299
2218
2150
2166
2210
2169
2031
1905
1886
1930
1914
1795
1664
1638
1716
1795
1796
1751
1728
1730
1690
1579
1459
1407
1418
1410
1340
1266
1265
1327
1351
1274
1151
1089
1110
1128
1064
962
939
1033
1150
1171
1097
1041
1084
1173
1193
1120
1050
1072
1155
1192
1143
1092
1128
1227
1276
1224
1146
1148
1226
1277
1239
1172
1177
1256
1308
1266
1189
1184
1266
1333
1304
1227
1213
1291
1367
1348
1269
1245
1318
1400
1389
1303
1258
1312
1395
1396
1319
1272
1323
1411
1426
1353
1295
1330
1414
1435
1369
1310
1343
1433
1466
1405
1335
1354
1441
1485
1436
1369
1382
1465
1513
1467
1391
1389
1464
1515
1474
1399
1395
1472
1531
1495
1412
1392
1462
1530
1507
1430
1407
1475
1548
1532
1451
1413
1470
1544
1538
1462
1424
1481
1563
1566
1489
1437
1482
1565
1577
1504
1447
1486
1573
1594
1522
1452
1473
1554
1583
1519
1448
1465
1550
1591
1535
1458
1463
1546
1598
1554
1481
1483
1568
1629
1589
1503
1485
1558
1623
1595
1513
1489
1556
1625
1603
1519
1483
1543
1617
1606
1529
1494
1556
1641
1640
1558
1503
1545
1625
1631
1553
1490
1523
1604
1621
1549
1483
1510
1595
1626
1566
1501
1524
1610
1648
1589
1513
1520
1599
1639
1582
1500
1498
1578
1631
1589
1510
1502
1580
1643
1611
1535
1522
1598
1665
1632
1540
1501
1560
1632
1620
1543
1509
1570
1649
1645
1567
1521
1569
1646
1644
1564
1511
1557
1644
1656
1578
1510
1540
1624
1649
1584
1520
1548
1635
1670
1610
1540
1554
1636
1673
1614
1535
1540
1622
1670
1615
1527
1519
1603
1673
1642
1557
1539
1619
1699
1676
1580
1535
1598
1685
1678
1583
1523
1585
1711
1782
1771
1768
1845
1957
2007
1984
1968
2012
2063
2033
1935
1873
1908
1976
1979
1911
1863
1897
1968
1985
1932
1875
1872
1907
1933
1950
1990
2053
2089
2057
1982
1940
1957
1979
1928
1802
1697
1702
1800
1884
1867
1777
1704
1689
1679
1616
1520
1461
1457
1448
1384
1313
1325
1430
1525
1513
1430
1390
1443
1511
1496
1412
1367
1420
1500
1505
1440
1410
1473
1565
1579
1514
1470
1518
1604
1627
1579
1564
1653
1797
1888
1920
2005
2244
2595
2921
3160
3391
3730
4166
4580
4883
5120
5377
5642
5785
5709
5461
5163
4834
4372
3689
2859
2062
1404
832
248
-330
-777
-1019
-1124
-1203
-1260
-1201
-991
-734
-560
-458
-290
16
347
535
564
594
757
987
1107
1067
1005
1069
1231
1328
1284
1197
1203
1292
1339
1282
1211
1236
1339
1394
1340
1272
1318
1477
1610
1619
1562
1575
1698
1822
1827
1734
1668
1700
1762
1748
1662
1612
1664
1752
1760
1686
1636
1684
1766
1767
1680
1617
1655
1735
1741
1665
1613
1655
1727
1723
1658
1651
1769
1924
1980
1929
1899
1982
2114
2150
2057
1947
1939
2014
2049
1985
1898
1897
1975
2020
1968
1896
1933
2086
2219
2217
2130
2114
2230
2364
2374
2273
2199
2231
2289
2256
2151
2104
2163
2216
2138
1967
1862
1894
1951
1887
1721
1609
1646
1748
1782
1734
1703
1734
1749
1660
1505
1407
1413
1438
1381
1273
1225
1279
1346
1317
1196
1095
1087
1117
1083
973
892
928
1045
1120
1090
1023
1028
1116
1185
1155
1070
1040
1099
1163
1144
1071
1051
1129
1220
1221
1145
1101
1155
1240
1250
1181
1136
1184
1271
1287
1219
1166
1207
1299
1329
1269
1208
1236
1321
1353
1291
1221
1239
1326
1371
1319
1244
1251
1336
1391
1353
1284
1290
1374
1432
1393
1311
1295
1366
1426
1393
1314
1299
1375
1450
1431
1354
1328
1395
1469
1454
1371
1333
1392
1470
1461
1375
1323
1374
1461
1474
1405
1356
1403
1491
1508
1435
1371
1399
1480
1502
1433
1367
1394
1485
1525
1467
1393
1405
1491
1540
1493
1419
1424
1506
1558
1510
1423
1408
1482
1543
1512
1436
1424
1501
1571
1545
1461
1431
1495
1566
1548
1467
1431
1489
1566
1559
1479
1431
1477
1554
1557
1486
1441
1490
1577
1591
1515
1450
1479
1561
1584
1517
1448
1467
1546
1577
1519
1450
1464
1545
1586
1539
1474
1486
1565
1609
1562
1489
1487
1560
1607
1564
1489
1485
1561
1618
1580
1493
1468
1536
1605
1584
1505
1475
1536
1610
1598
1520
1479
1530
1606
1606
1535
1493
1543
1624
1631
1557
1500
1537
1617
1632
1560
1498
1528
1614
1639
1570
1495
1512
1596
1633
1577
1507
1520
1604
1650
1599
1524
1527
1610
1663
1619
1542
1538
1618
1678
1639
1551
1527
1595
1659
1631
1549
1522
1588
1661
1644
1562
1526
1588
1668
1661
1581
1538
1595
1678
1673
1580
1515
1556
1644
1658
1581
1520
1560
1653
1680
1610
1539
1561
1646
1678
1615
1539
1547
1635
1713
1731
1733
1786
1879
1943
1945
1937
1974
2034
2036
1958
1872
1864
1926
1965
1927
1862
1855
1915
1964
1940
1875
1844
1867
1891
1883
1887
1956
2057
2092
2017
1913
1890
1950
1977
1879
1715
1629
1682
1790
1829
1774
1706
1686
1683
1630
1530
1454
1445
1454
1408
1313
1262
1318
1433
1495
1457
1391
1389
1451
1487
1440
1363
1352
1424
1486
1460
1392
1392
1481
1559
1531
1447
1434
1529
1620
1599
1519
1529
1674
1832
1876
1864
1969
2267
2633
2908
3099
3354
3754
4205
4563
4815
5076
5397
5672
5748
5612
5384
5150
4837
4312
3568
2755
2025
1396
781
150
-409
-792
-1007
-1152
-1278
-1319
-1201
-963
-746
-626
-519
-293
53
359
489
504
575
779
993
1064
1006
981
1085
1234
1277
1207
1155
1212
1301
1297
1209
1171
1253
1362
1362
1265
1223
1331
1507
1590
1549
1510
1581
1724
1800
1758
1682
1676
1727
1739
1674
1606
1620
1697
1737
1691
1625
1634
1714
1763
1719
1637
1622
1687
1743
1715
1644
1628
1687
1731
1691
1628
1660
1807
1947
1964
1899
1895
2016
2153
2156
2032
1930
1957
2048
2056
1955
1869
1907
2012
2034
1937
1857
1931
2112
2219
2168
2074
2104
2256
2365
2324
2214
2184
2250
2278
2190
2078
2079
2177
2206
2075
1895
1838
1911
1946
1828
1645
1572
1646
1731
1717
1658
1667
1737
1739
1605
1439
1381
1426
1436
1332
1208
1201
1302
1362
1280
1131
1063
1107
1144
1066
924
865
949
1072
1101
1031
979
1031
1132
1162
1094
1025
1047
1131
1162
1104
1039
1067
1167
1225
1180
1105
1107
1188
1243
1204
1133
1134
1218
1281
1246
1166
1152
1228
1297
1274
1196
1173
1243
1316
1299
1220
1190
1256
1340
1338
1265
1229
1288
1372
1375
1300
1254
1306
1394
1406
1330
1266
1298
1382
1408
1347
1289
1318
1403
1434
1375
1310
1331
1418
1461
1412
1347
1362
1447
1494
1443
1362
1357
1433
1485
1442
1363
1355
1435
1501
1469
1385
1364
1438
1513
1496
1421
1401
1474
1553
1539
1452
1407
1461
1539
1532
1449
1400
1450
1536
1544
1468
1411
1451
1539
1561
1495
1437
1471
1558
1584
1515
1439
1451
1531
1566
1509
1438
1451
1537
1586
1538
1463
1465
1546
1599
1556
1478
1472
1550
1609
1569
1480
1455
1522
1586
1560
1480
1460
1534
1611
1595
1513
1477
1537
1613
1602
1518
1471
1521
1599
1598
1517
1461
1503
1589
1608
1543
1491
1529
1613
1633
1563
1494
1513
1591
1617
1556
1494
1519
1609
1650
1593
1515
1518
1594
1636
1583
1504
1501
1578
1632
1589
1508
1497
1573
1638
1608
1530
1511
1580
1646
1618
1530
1491
1548
1619
1606
1528
1493
1553
1636
1634
1554
1501
1545
1625
1633
1558
1501
1536
1615
1629
1556
1491
1516
1596
1621
1559
1497
1524
1611
1646
1586
1512
1523
1602
1643
1589
1512
1515
1594
1643
1596
1512
1496
1566
1626
1601
1529
1510
1573
1638
1624
1553
1519
1567
1633
1633
1567
1521
1555
1634
1683
1690
1716
1799
1897
1935
1918
1923
1992
2059
2030
1917
1837
1873
1959
1969
1885
1818
1857
1947
1967
1896
1835
1861
1920
1912
1852
1862
1993
2127
2119
1983
1883
1923
2018
2005
1849
1690
1664
1755
1833
1819
1760
1735
1746
1722
1626
1519
1477
1494
1488
1401
1291
1265
1355
1468
1491
1426
1377
1414
1484
1483
1403
1342
1381
1468
1491
1427
1377
1429
1532
1563
1490
1421
1460
1567
1610
1547
1488
1555
1717
1830
1829
1829
1987
2311
2648
2882
3074
3367
3796
4230
4548
4786
5071
5420
5686
5724
5566
5357
5151
4830
4265
3498
2713
2027
1399
742
83
-451
-790
-1005
-1198
-1355
-1368
-1197
-952
-777
-685
-548
-271
79
334
426
462
582
794
963
995
955
980
1103
1212
1211
1148
1145
1230
1290
1242
1152
1156
1268
1355
1309
1204
1204
1351
1508
1540
1483
1484
1602
1737
1762
1696
1656
1698
1748
1713
1623
1589
1650
1722
1708
1630
1599
1663
1742
1734
1654
1608
1653
1723
1719
1643
1597
1644
1725
1727
1648
1606
1694
1857
1951
1921
1867
1916
2058
2150
2101
1985
1945
2011
2070
2020
1913
1883
1966
2042
1999
1889
1868
1997
2156
2191
2114
2078
2172
2310
2346
2273
2214
2250
2303
2258
2136
2072
2137
2224
2183
2021
1891
1896
1957
1925
1777
1643
1632
1700
1725
1681
1659
1716
1779
1725
1557
1414
1397
1446
1419
1288
1179
1204
1313
1349
1243
1100
1056
1106
1119
1016
881
853
951
1050
1044
974
960
1041
1125
1114
1039
1011
1074
1144
1127
1048
1018
1090
1185
1194
1122
1075
1120
1198
1205
1137
1091
1139
1227
1249
1187
1136
1175
1262
1289
1230
1174
1205
1293
1326
1266
1197
1213
1297
1339
1286
1213
1219
1300
1350
1308
1238
1243
1329
1394
1361
1283
1271
1347
1417
1394
1317
1295
1364
1437
1420
1340
1305
1363
1439
1433
1361
1327
1385
1466
1466
1388
1338
1385
1470
1486
1419
1366
1403
1487
1507
1438
1371
1392
1471
1498
1438
1375
1398
1483
1522
1467
1394
1403
1485
1533
1486
1412
1414
1496
1552
1511
1431
1419
1494
1556
1524
1443
1423
1491
1557
1530
1445
1412
1474
1548
1538
1465
1434
1496
1575
1571
1491
1440
1483
1556
1557
1481
1430
1474
1557
1571
1500
1440
1472
1556
1580
1516
1454
1479
1563
1592
1529
1454
1464
1542
1581
1530
1461
1473
1557
1608
1562
1487
1483
1559
1611
1570
1489
1475
1545
1603
1568
1483
1456
1520
1587
1568
1494
1470
1537
1611
1598
1515
1472
1524
1598
1591
1511
1465
1516
1603
1613
1539
1481
1518
1602
1619
1548
1481
1505
1585
1611
1546
1475
1492
1574
1613
1562
1495
1507
1586
1627
1572
1491
1486
1559
1607
1562
1484
1480
1561
1627
1594
1512
1490
1560
1627
1603
1522
1494
1560
1632
1612
1525
1481
1533
1604
1593
1514
1474
1531
1614
1617
1543
1496
1543
1623
1630
1558
1506
1543
1622
1639
1578
1522
1544
1613
1637
1588
1532
1539
1596
1635
1632
1641
1714
1825
1890
1880
1862
1913
2011
2050
1973
1856
1822
1891
1952
1913
1827
1812
1895
1964
1927
1837
1815
1883
1927
1870
1794
1844
2016
2137
2077
1918
1851
1936
2029
1970
1788
1657
1683
1784
1820
1765
1717
1739
1767
1702
1560
1461
1471
1517
1474
1336
1231
1265
1396
1478
1445
1376
1379
1452
1492
1435
1348
1337
1414
1478
1449
1374
1369
1461
1551
1534
1446
1415
1498
1597
1591
1501
1473
1584
1743
1803
1769
1802
2019
2356
2645
2842
3062
3416
3860
4247
4522
4781
5124
5486
5696
5675
5518
5351
5155
4781
4155
3384
2645
1991
1340
645
-5
-484
-785
-1019
-1250
-1397
-1350
-1135
-911
-789
-704
-515
-193
133
325
396
471
635
831
948
966
963
1023
1128
1192
1183
1160
1191
1255
1268
1208
1158
1200
1300
1340
1271
1195
1237
1388
1512
1520
1484
1524
1652
1752
1743
1683
1679
1738
1756
1681
1592
1598
1686
1736
1683
1604
1615
1711
1770
1719
1631
1622
1697
1747
1697
1614
1609
1694
1753
1704
1612
1616
1750
1899
1937
1884
1870
1971
2108
2149
2074
1992
2000
2061
2064
1979
1902
1927
2015
2040
1958
1875
1915
2061
2174
2165
2106
2124
2237
2331
2320
2260
2254
2308
2318
2226
2116
2112
2205
2251
2152
1986
1902
1935
1965
1878
1723
1632
1659
1712
1697
1647
1661
1751
1795
1694
1513
1407
1432
1474
1403
1253
1179
1250
1354
1336
1194
1075
1082
1144
1115
978
868
897
1015
1076
1032
977
1010
1105
1145
1089
1024
1042
1120
1146
1081
1011
1036
1138
1201
1164
1095
1100
1177
1226
1183
1110
1111
1196
1261
1230
1154
1139
1210
1273
1246
1167
1145
1215
1291
1280
1208
1181
1247
1328
1326
1251
1208
1257
1333
1335
1262
1214
1259
1342
1354
1284
1227
1263
1348
1372
1312
1257
1292
1383
1417
1356
1288
1308
1395
1438
1386
1315
1325
1408
1456
1406
1327
1322
1399
1455
1417
1343
1339
1422
1491
1462
1379
1353
1421
1494
1480
1406
1379
1442
1515
1504
1425
1384
1434
1504
1496
1418
1377
1430
1513
1519
1444
1390
1431
1513
1527
1458
1402
1441
1529
1556
1490
1426
1453
1540
1574
1510
1434
1446
1529
1571
1513
1429
1424
1499
1549
1504
1427
1426
1509
1572
1536
1451
1431
1503
1571
1545
1460
1430
1491
1559
1539
1457
1419
1476
1551
1547
1477
1443
1499
1578
1578
1500
1446
1483
1555
1558
1484
1431
1472
1557
1578
1511
1450
1481
1568
1597
1532
1461
1480
1564
1600
1535
1451
1450
1530
1580
1536
1461
1461
1542
1601
1563
1481
1464
1533
1593
1561
1480
1456
1521
1586
1559
1474
1439
1500
1576
1567
1491
1456
1516
1594
1586
1498
1439
1480
1556
1562
1489
1441
1488
1578
1594
1519
1451
1477
1556
1576
1507
1439
1465
1554
1590
1529
1454
1465
1549
1593
1541
1467
1471
1552
1603
1558
1476
1465
1540
1603
1574
1500
1486
1554
1616
1590
1512
1487
1546
1608
1588
1518
1493
1545
1601
1595
1567
1609
1732
1843
1857
1817
1834
1939
2034
2015
1900
1818
1846
1922
1929
1850
1789
1827
1919
1942
1867
1795
1821
1903
1911
1819
1759
1859
2051
2135
2026
1869
1853
1974
2038
1921
1725
1644
1716
1800
1779
1708
1706
1772
1778
1656
1501
1453
1510
1532
1426
1267
1207
1291
1409
1440
1388
1355
1399
1463
1456
1379
1321
1348
1421
1444
1393
1344
1381
1478
1527
1479
1410
1428
1531
1598
1555
1477
1498
1635
1757
1765
1731
1819
2080
2392
2625
2813
3087
3491
3914
4237
4490
4798
5188
5523
5659
5608
5498
5381
5161
4713
4057
3336
2656
1990
1278
562
-36
-459
-769
-1057
-1305
-1405
-1307
-1102
-931
-829
-704
-469
-155
118
283
383
506
672
824
909
948
993
1065
1127
1149
1152
1178
1228
1253
1220
1171
1176
1246
1305
1290
1227
1211
1290
1407
1473
1478
1492
1565
1662
1710
1702
1691
1718
1747
1719
1646
1605
1642
1706
1710
1649
1604
1642
1723
1746
1685
1622
1642
1716
1739
1673
1601
1624
1719
1756
1679
1584
1614
1771
1906
1908
1842
1858
1996
2128
2127
2029
1975
2023
2080
2038
1931
1888
1961
2046
2021
1912
1861
1949
2093
2154
2112
2078
2143
2258
2306
2262
2218
2251
2308
2279
2157
2065
2103
2209
2224
2095
1943
1904
1959
1960
1833
1679
1631
1688
1716
1654
1598
1658
1784
1801
1643
1447
1391
1466
1489
1358
1188
1164
1288
1375
1291
1123
1053
1119
1173
1085
922
853
934
1042
1047
975
954
1034
1119
1106
1028
1002
1070
1143
1119
1027
989
1061
1161
1176
1110
1068
1118
1198
1201
1123
1071
1121
1218
1248
1187
1131
1164
1251
1282
1223
1162
1190
1281
1322
1269
1204
1223
1309
1354
1303
1228
1233
1315
1367
1323
1247
1245
1323
1379
1339
1256
1242
1317
1386
1362
1286
1266
1338
1411
1393
1312
1279
1341
1418
1410
1333
1297
1357
1444
1448
1368
1314
1358
1445
1463
1397
1346
1388
1478
1504
1437
1370
1395
1478
1507
1444
1373
1389
1472
1511
1455
1379
1385
1466
1514
1468
1395
1398
1480
1536
1492
1408
1395
1470
1534
1503
1421
1403
1478
1554
1537
1457
1424
1485
1560
1549
1470
1428
1478
1549
1543
1466
1416
1457
1529
1532
1463
1419
1467
1550
1561
1487
1426
1458
1544
1571
1509
1448
1474
1557
1590
1530
1458
1467
1545
1584
1536
1469
1480
1562
1610
1560
1478
1470
1544
1599
1559
1477
1464
1538
1604
1572
1483
1452
1517
1588
1569
1487
1457
1523
1604
1593
1503
1452
1503
1588
1591
1512
1457
1502
1590
1606
1533
1470
1501
1586
1609
1543
1481
1511
1600
1632
1568
1495
1509
1592
1630
1570
1492
1499
1585
1636
1587
1504
1496
1573
1631
1593
1514
1503
1579
1641
1606
1519
1494
1563
1633
1612
1530
1500
1564
1639
1622
1534
1487
1540
1620
1617
1538
1490
1542
1630
1639
1557
1492
1528
1616
1635
1559
1489
1521
1616
1652
1582
1502
1518
1608
1650
1589
1509
1517
1597
1637
1592
1552
1626
1785
1886
1858
1798
1843
1987
2079
2016
1873
1815
1886
1966
1933
1825
1787
1872
1966
1941
1829
1780
1858
1946
1905
1774
1739
1888
2082
2110
1961
1831
1873
2002
2015
1860
1697
1679
1763
1792
1720
1666
1726
1819
1784
1608
1456
1463
1557
1553
1393
1227
1219
1348
1445
1414
1340
1355
1456
1509
1436
1325
1312
1405
1478
1436
1346
1338
1438
1532
1516
1428
1398
1475
1567
1564
1483
1447
1529
1660
1723
1706
1719
1863
2111
2359
2567
2800
3124
3513
3874
4172
4469
4826
5206
5488
5605
5596
5535
5417
5154
4684
4056
3374
2696
1996
1262
563
-5
-423
-760
-1075
-1320
-1395
-1279
-1084
-938
-845
-703
-445
-129
122
266
372
521
699
831
890
933
1011
1103
1143
1128
1127
1189
1270
1278
1205
1148
1190
1295
1342
1285
1212
1232
1345
1444
1462
1455
1511
1625
1702
1691
1658
1687
1762
1779
1694
1597
1601
1691
1744
1685
1595
1596
1697
1772
1730
1635
1620
1705
1774
1725
1617
1591
1684
1775
1739
1620
1575
1678
1832
1889
1845
1828
1922
2058
2109
2057
2005
2027
2076
2052
1957
1893
1929
2008
2020
1949
1885
1910
2000
2065
2073
2071
2115
2189
2234
2230
2225
2261
2310
2302
2216
2123
2105
2163
2209
2166
2059
1974
1955
1953
1896
1787
1699
1679
1689
1663
1615
1620
1706
1787
1751
1604
1468
1441
1475
1444
1320
1209
1218
1309
1341
1257
1145
1117
1157
1149
1040
917
893
964
1020
996
956
987
1076
1118
1070
1008
1026
1109
1150
1092
1016
1027
1123
1190
1158
1090
1092
1174
1234
1195
1115
1105
1188
1263
1241
1161
1135
1200
1269
1250
1170
1139
1205
1286
1280
1205
1168
1227
1312
1318
1246
1201
1250
1332
1341
1270
1218
1260
1346
1367
1300
1237
1263
1342
1367
1306
1244
1270
1357
1398
1345
1276
1287
1366
1409
1360
1289
1298
1384
1443
1405
1327
1317
1389
1445
1410
1332
1320
1393
1457
1425
1339
1309
1373
1443
1423
1339
1300
1358
1437
1435
1359
1312
1356
1429
1430
1358
1314
1361
1443
1454
1381
1321
1352
1433
1455
1392
1334
1364
1451
1484
1425
1355
1368
1448
1486
1434
1367
1379
1462
1510
1461
1379
1369
1437
1484
1441
1363
1354
1429
1493
1461
1378
1354
1422
1492
1476
1401
1377
1443
1517
1501
1414
1368
1419
1496
1493
1415
1370
1424
1513
1524
1446
1383
1417
1501
1522
1457
1398
1429
1512
1535
1465
1392
1408
1489
1524
1466
1397
1414
1502
1552
1503
1423
1417
1488
1534
1486
1406
1398
1474
1534
1498
1417
1400
1472
1539
1514
1435
1413
1484
1561
1545
1460
1416
1468
1541
1535
1458
1414
1463
1540
1540
1461
1407
1447
1526
1536
1463
1407
1447
1535
1557
1485
1415
1436
1519
1550
1488
1417
1434
1519
1561
1504
1424
1426
1505
1553
1504
1424
1421
1503
1563
1521
1432
1411
1483
1547
1512
1428
1416
1502
1577
1543
1447
1420
1503
1584
1553
1451
1418
1498
1582
1553
1459
1458
1605
1772
1805
1725
1696
1812
1967
1993
1873
1756
1770
1863
1886
1793
1702
1731
1841
1883
1797
1696
1714
1829
1879
1778
1648
1674
1871
2043
2015
1850
1762
1846
1964
1932
1758
1622
1633
1706
1697
1614
1589
1678
1757
1683
1497
1382
1427
1510
1460
1277
1139
1166
1286
1337
1284
1242
1302
1399
1403
1302
1221
1256
1352
1376
1304
1245
1293
1402
1444
1380
1305
1326
1423
1479
1437
1370
1388
1498
1597
1612
1596
1657
1833
2056
2257
2460
2737
3098
3468
3781
4067
4407
4808
5175
5403
5489
5506
5482
5349
5026
4519
3915
3281
2603
1854
1091
431
-73
-480
-871
-1228
-1444
-1451
-1314
-1168
-1063
-940
-729
-450
-189
 8
172
345
512
631
704
784
898
999
1030
1008
1015
1092
1186
1205
1142
1084
1109
1192
1238
1202
1142
1140
1209
1279
1306
1321
1384
1490
1567
1574
1558
1594
1678
1721
1663
1561
1527
1589
1658
1638
1553
1515
1576
1664
1674
1603
1553
1595
1671
1672
1587
1516
1548
1643
1680
1614
1531
1542
1649
1747
1766
1747
1779
1875
1958
1970
1945
1948
1984
1988
1924
1846
1831
1883
1922
1891
1825
1804
1851
1916
1946
1955
1987
2050
2104
2114
2107
2132
2195
2236
2198
2099
2023
2031
2091
2115
2053
1951
1889
1881
1865
1789
1680
1615
1613
1612
1560
1507
1541
1659
1733
1656
1482
1364
1377
1418
1354
1202
1106
1154
1250
1245
1129
1031
1043
1095
1059
931
832
850
925
944
895
874
939
1023
1026
961
932
994
1072
1061
972
920
977
1076
1101
1044
1005
1055
1141
1153
1076
1013
1050
1146
1183
1128
1068
1096
1185
1223
1165
1093
1108
1197
1249
1204
1134
1144
1233
1293
1254
1178
1172
1251
1313
1280
1204
1194
1270
1338
1310
1227
1199
1264
1334
1317
1241
1214
1278
1356
1348
1268
1223
1270
1344
1343
1269
1223
1269
1351
1364
1295
1240
1276
1360
1383
1320
1259
1287
1372
1404
1342
1269
1281
1361
1402
1351
1282
1292
1374
1423
1377
1301
1299
1375
1430
1393
1321
1320
1402
1467
1433
1349
1324
1390
1457
1436
1359
1333
1400
1478
1469
1391
1350
1401
1475
1472
1400
1360
1412
1494
1501
1428
1375
1415
1499
1516
1447
1389
1422
1508
1534
1466
1393
1409
1492
1530
1475
1406
1419
1503
1548
1496
1416
1412
1487
1538
1497
1420
1413
1488
1546
1509
1424
1402
1470
1536
1512
1431
1404
1468
1539
1520
1434
1391
1445
1520
1512
1433
1389
1443
1527
1532
1453
1394
1430
1510
1524
1455
1399
1436
1522
1546
1479
1412
1432
1512
1540
1480
1414
1433
1515
1551
1489
1410
1413
1492
1539
1491
1415
1415
1495
1552
1512
1428
1410
1478
1538
1508
1433
1419
1493
1565
1544
1459
1422
1478
1547
1533
1452
1408
1458
1531
1526
1445
1392
1432
1507
1512
1438
1385
1425
1506
1518
1440
1372
1398
1479
1504
1442
1384
1420
1512
1543
1475
1402
1423
1510
1539
1469
1393
1419
1515
1551
1477
1401
1456
1622
1747
1736
1671
1697
1833
1950
1937
1836
1774
1807
1854
1829
1754
1727
1785
1854
1839
1760
1720
1775
1850
1833
1728
1661
1736
1899
1991
1935
1827
1803
1873
1914
1840
1713
1652
1672
1677
1614
1558
1606
1717
1740
1605
1431
1381
1458
1497
1386
1207
1131
1202
1294
1291
1236
1250
1352
1423
1367
1249
1210
1289
1370
1343
1249
1223
1308
1407
1405
1322
1281
1346
1443
1459
1390
1343
1399
1515
1581
1568
1560
1652
1842
2043
2216
2418
2719
3098
3457
3745
4021
4373
4790
5152
5363
5444
5479
5482
5356
5019
4500
3909
3303
2640
1878
1094
427
-69
-472
-875
-1248
-1464
-1458
-1318
-1187
-1099
-973
-740
-450
-203
-31
125
314
500
618
679
755
879
994
1027
997
998
1077
1175
1194
1128
1068
1091
1171
1213
1178
1126
1133
1204
1269
1293
1314
1385
1489
1554
1547
1529
1573
1664
1705
1642
1541
1512
1577
1643
1619
1537
1505
1568
1648
1646
1573
1531
1580
1652
1644
1555
1493
1536
1629
1653
1576
1500
1528
1641
1728
1732
1716
1769
1882
1959
1955
1925
1945
1998
1995
1909
1824
1830
1906
1940
1881
1803
1804
1882
1945
1942
1931
1987
2092
2150
2125
2093
2142
2249
2294
2213
2082
2028
2083
2149
2127
2033
1959
1952
1950
1881
1762
1680
1674
1681
1622
1525
1495
1584
1704
1719
1604
1466
1416
1434
1412
1303
1188
1163
1218
1247
1189
1101
1071
1096
1087
996
886
852
892
921
886
844
875
969
1026
991
931
941
1023
1073
1026
943
934
1016
1089
1075
1016
1015
1094
1160
1130
1046
1020
1092
1175
1172
1107
1085
1151
1227
1215
1133
1090
1146
1229
1234
1161
1115
1166
1252
1265
1192
1134
1174
1264
1291
1230
1175
1212
1304
1338
1276
1205
1221
1305
1342
1286
1213
1225
1311
1363
1317
1240
1235
1311
1365
1329
1258
1256
1334
1397
1367
1289
1271
1338
1401
1374
1294
1269
1335
1407
1391
1311
1275
1334
1413
1411
1338
1299
1355
1438
1439
1356
1294
1328
1408
1423
1355
1299
1334
1421
1447
1384
1320
1344
1427
1460
1402
1336
1353
1434
1473
1417
1340
1341
1416
1462
1418
1346
1350
1434
1493
1455
1372
1355
1426
1489
1459
1378
1352
1416
1483
1461
1379
1345
1407
1486
1483
1411
1375
1432
1512
1510
1427
1368
1404
1480
1490
1420
1368
1409
1500
1527
1463
1397
1419
1498
1526
1464
1395
1412
1496
1535
1478
1398
1398
1474
1521
1474
1400
1400
1481
1540
1502
1423
1409
1481
1542
1511
1432
1415
1486
1552
1522
1430
1391
1449
1520
1507
1427
1391
1450
1532
1533
1458
1412
1457
1534
1539
1467
1416
1456
1535
1545
1469
1404
1430
1510
1533
1468
1405
1431
1517
1552
1491
1416
1423
1500
1540
1488
1418
1425
1505
1550
1498
1414
1405
1478
1532
1494
1418
1412
1491
1556
1525
1442
1416
1478
1539
1513
1436
1411
1478
1551
1535
1452
1410
1465
1544
1544
1467
1421
1470
1549
1545
1455
1402
1485
1647
1742
1712
1663
1719
1866
1960
1914
1806
1768
1826
1872
1823
1734
1720
1802
1870
1832
1735
1708
1787
1864
1826
1711
1665
1764
1921
1985
1925
1848
1854
1912
1917
1840
1753
1724
1724
1683
1613
1600
1681
1769
1744
1609
1489
1477
1524
1504
1381
1253
1222
1273
1309
1288
1272
1325
1414
1440
1371
1291
1293
1367
1408
1362
1298
1310
1397
1458
1427
1359
1355
1433
1501
1485
1428
1425
1501
1581
1599
1586
1630
1762
1923
2066
2231
2494
2852
3211
3501
3765
4093
4502
4899
5189
5366
5491
5580
5566
5372
5004
4533
4004
3392
2661
1859
1114
512
23
-443
-896
-1244
-1391
-1359
-1266
-1186
-1082
-889
-627
-383
-200
-21
206
438
580
625
680
825
1002
1080
1034
989
1056
1195
1264
1206
1120
1122
1207
1261
1224
1159
1160
1231
1287
1279
1267
1331
1464
1569
1575
1534
1553
1656
1749
1731
1626
1556
1592
1670
1676
1596
1532
1567
1655
1683
1623
1565
1594
1675
1698
1627
1548
1557
1638
1687
1648
1579
1568
1628
1694
1720
1731
1779
1866
1937
1956
1957
1989
2044
2060
1998
1909
1876
1919
1964
1940
1873
1846
1892
1951
1957
1935
1969
2075
2170
2170
2115
2121
2221
2320
2300
2179
2083
2093
2157
2164
2097
2032
2022
2024
1964
1847
1753
1732
1741
1698
1603
1540
1575
1679
1749
1720
1623
1537
1501
1477
1418
1328
1261
1251
1272
1265
1217
1169
1157
1157
1113
1026
952
936
951
938
898
894
960
1038
1043
985
958
1018
1101
1104
1023
961
1000
1092
1125
1077
1040
1089
1180
1202
1129
1056
1076
1163
1206
1160
1101
1120
1198
1235
1181
1110
1121
1206
1261
1224
1158
1166
1251
1313
1280
1204
1191
1264
1327
1301
1228
1215
1290
1361
1338
1253
1218
1279
1355
1347
1269
1231
1289
1370
1371
1294
1246
1292
1376
1387
1317
1266
1312
1405
1431
1362
1295
1318
1400
1429
1368
1300
1319
1404
1443
1387
1311
1316
1393
1438
1393
1322
1328
1410
1465
1423
1342
1330
1403
1464
1433
1357
1344
1419
1489
1463
1378
1344
1407
1482
1471
1392
1356
1414
1493
1488
1405
1352
1396
1474
1478
1405
1356
1401
1485
1498
1425
1364
1398
1484
1507
1440
1376
1404
1492
1524
1461
1386
1397
1479
1520
1467
1396
1406
1490
1537
1484
1399
1389
1462
1516
1476
1397
1386
1461
1527
1497
1416
1392
1460
1531
1513
1436
1408
1473
1549
1536
1451
1403
1452
1528
1526
1449
1401
1450
1533
1542
1465
1406
1444
1530
1552
1486
1426
1457
1544
1571
1505
1430
1442
1519
1550
1489
1416
1427
1508
1552
1499
1418
1413
1488
1540
1503
1430
1426
1502
1562
1527
1444
1421
1488
1553
1529
1452
1430
1499
1575
1560
1479
1441
1499
1576
1568
1484
1437
1490
1577
1584
1503
1439
1473
1552
1565
1494
1437
1474
1560
1581
1510
1443
1471
1558
1586
1519
1451
1480
1579
1621
1550
1458
1466
1561
1614
1550
1452
1453
1555
1622
1560
1449
1443
1580
1729
1761
1709
1711
1825
1953
1975
1901
1845
1867
1907
1879
1800
1762
1809
1878
1877
1808
1758
1789
1864
1886
1823
1743
1740
1830
1939
1981
1947
1906
1910
1932
1918
1858
1799
1770
1740
1677
1614
1628
1723
1793
1740
1599
1501
1512
1548
1493
1355
1251
1253
1297
1291
1251
1271
1372
1453
1418
1312
1265
1325
1397
1376
1293
1266
1339
1423
1421
1353
1325
1384
1459
1463
1410
1388
1442
1517
1543
1529
1550
1646
1780
1893
2005
2199
2509
2874
3192
3447
3725
4099
4530
4900
5151
5328
5495
5617
5585
5340
4951
4512
4024
3403
2624
1801
1095
544
50
-469
-950
-1258
-1347
-1316
-1276
-1224
-1080
-834
-580
-397
-245
-29
248
468
548
562
659
861
1033
1051
972
959
1079
1218
1238
1151
1095
1145
1230
1235
1166
1126
1175
1252
1266
1228
1242
1356
1501
1564
1529
1502
1569
1694
1753
1691
1588
1561
1623
1679
1646
1565
1541
1608
1682
1672
1604
1581
1643
1711
1689
1594
1540
1590
1673
1681
1608
1556
1592
1668
1697
1678
1695
1795
1912
1948
1913
1911
1995
2087
2068
1947
1854
1880
1966
1982
1903
1835
1866
1947
1963
1902
1878
1972
2116
2168
2107
2058
2130
2269
2327
2248
2132
2097
2141
2166
2118
2055
2044
2064
2035
1928
1811
1761
1769
1755
1670
1567
1533
1593
1684
1721
1680
1604
1545
1509
1461
1386
1306
1260
1251
1247
1219
1181
1162
1161
1139
1075
1002
966
965
951
904
872
908
995
1044
1011
959
976
1061
1115
1071
986
966
1034
1098
1079
1019
1020
1102
1171
1141
1053
1021
1088
1169
1169
1106
1083
1147
1224
1215
1135
1089
1138
1216
1222
1153
1110
1158
1244
1260
1192
1138
1174
1260
1290
1234
1180
1209
1291
1319
1257
1185
1197
1275
1314
1264
1198
1213
1298
1349
1305
1231
1232
1313
1373
1339
1267
1263
1344
1411
1382
1301
1277
1343
1410
1387
1308
1281
1348
1426
1415
1333
1288
1339
1417
1419
1347
1303
1351
1433
1444
1374
1317
1346
1420
1435
1373
1321
1355
1436
1458
1391
1323
1344
1428
1465
1409
1340
1357
1444
1492
1443
1364
1359
1432
1481
1439
1362
1357
1432
1489
1449
1363
1342
1412
1479
1453
1374
1353
1424
1501
1485
1401
1363
1421
1498
1491
1412
1372
1429
1514
1517
1437
1379
1419
1501
1515
1445
1387
1424
1511
1535
1469
1401
1421
1501
1531
1472
1404
1419
1500
1538
1479
1400
1400
1477
1527
1483
1407
1403
1483
1547
1516
1435
1413
1479
1543
1521
1447
1427
1494
1564
1546
1465
1427
1483
1555
1544
1464
1421
1473
1550
1547
1465
1410
1450
1529
1537
1464
1412
1454
1540
1556
1480
1410
1434
1519
1548
1484
1416
1437
1525
1566
1511
1436
1443
1521
1564
1515
1443
1449
1532
1584
1535
1448
1432
1503
1557
1516
1429
1409
1480
1549
1522
1438
1406
1468
1539
1526
1451
1419
1473
1543
1534
1459
1418
1465
1536
1536
1467
1426
1474
1556
1563
1482
1414
1457
1588
1691
1703
1683
1725
1835
1922
1922
1869
1846
1868
1877
1830
1769
1762
1814
1855
1833
1777
1758
1797
1837
1820
1761
1722
1745
1815
1883
1920
1926
1917
1899
1875
1855
1840
1817
1761
1671
1597
1592
1661
1734
1733
1656
1571
1536
1534
1499
1410
1318
1277
1275
1257
1222
1225
1299
1389
1403
1333
1267
1281
1343
1356
1296
1245
1281
1367
1400
1348
1298
1333
1420
1454
1403
1356
1395
1490
1533
1498
1473
1547
1690
1798
1850
1952
2206
2573
2918
3167
3402
3737
4171
4582
4880
5101
5327
5545
5644
5537
5264
4925
4540
4032
3341
2535
1759
1102
530
-32
-574
-1003
-1249
-1340
-1358
-1336
-1239
-1042
-798
-591
-434
-257
-6
266
449
512
556
687
886
1024
1021
957
971
1092
1207
1209
1134
1104
1162
1230
1219
1157
1141
1203
1267
1258
1219
1255
1390
1525
1558
1514
1511
1608
1728
1752
1673
1596
1604
1661
1671
1611
1557
1578
1643
1666
1623
1585
1611
1675
1692
1635
1569
1568
1621
1653
1627
1587
1590
1632
1657
1646
1650
1719
1828
1899
1893
1874
1920
2021
2075
2014
1894
1836
1884
1951
1936
1856
1817
1870
1939
1925
1856
1855
1980
2124
2148
2064
2024
2124
2275
2311
2201
2079
2071
2142
2158
2080
2008
2022
2072
2036
1892
1757
1734
1781
1767
1645
1520
1511
1615
1709
1701
1625
1568
1554
1524
1434
1325
1267
1271
1272
1225
1161
1142
1174
1186
1122
1019
961
972
983
930
847
830
912
1011
1026
968
939
1001
1089
1097
1019
956
986
1065
1086
1030
987
1037
1136
1169
1098
1018
1031
1120
1171
1131
1070
1090
1182
1237
1192
1113
1108
1188
1248
1214
1138
1128
1203
1265
1232
1149
1125
1193
1265
1251
1183
1167
1239
1318
1307
1229
1190
1246
1322
1320
1246
1205
1257
1339
1343
1265
1207
1245
1329
1347
1279
1222
1257
1347
1376
1310
1238
1255
1339
1377
1322
1252
1268
1357
1409
1362
1287
1289
1373
1431
1392
1316
1311
1391
1454
1419
1334
1311
1377
1442
1418
1341
1317
1383
1451
1432
1351
1317
1377
1451
1440
1361
1323
1381
1463
1463
1385
1334
1378
1460
1469
1397
1344
1386
1471
1487
1412
1343
1369
1453
1482
1419
1352
1375
1464
1505
1447
1368
1373
1453
1499
1449
1371
1370
1450
1506
1463
1377
1358
1429
1491
1461
1382
1362
1431
1499
1476
1395
1363
1423
1494
1480
1402
1368
1429
1509
1503
1420
1366
1411
1492
1502
1430
1378
1419
1505
1524
1454
1390
1416
1499
1526
1464
1400
1423
1510
1549
1492
1417
1424
1505
1551
1504
1430
1433
1515
1570
1527
1444
1431
1506
1567
1534
1453
1435
1508
1580
1557
1473
1438
1497
1569
1556
1480
1447
1505
1579
1569
1488
1442
1492
1570
1571
1495
1447
1496
1582
1591
1509
1440
1466
1545
1563
1492
1426
1452
1536
1565
1499
1424
1437
1520
1561
1506
1429
1434
1520
1580
1541
1456
1437
1511
1582
1559
1472
1437
1502
1587
1579
1484
1420
1480
1616
1702
1696
1679
1741
1860
1931
1910
1863
1870
1911
1906
1833
1771
1792
1864
1885
1826
1759
1766
1835
1872
1830
1758
1735
1778
1840
1880
1904
1926
1939
1918
1870
1836
1835
1836
1784
1676
1582
1578
1659
1739
1732
1647
1560
1529
1524
1481
1391
1307
1275
1271
1244
1204
1216
1306
1402
1410
1333
1271
1298
1367
1373
1303
1254
1302
1395
1417
1351
1300
1349
1447
1469
1398
1345
1398
1502
1528
1465
1436
1534
1694
1786
1807
1904
2187
2578
2905
3121
3350
3719
4179
4571
4829
5046
5312
5566
5649
5500
5217
4918
4573
4054
3322
2505
1767
1145
555
-55
-614
-1007
-1214
-1317
-1386
-1387
-1257
-1019
-781
-622
-493
-290
 5
280
420
452
514
689
900
1003
967
915
971
1113
1199
1164
1090
1095
1177
1223
1172
1103
1122
1220
1275
1228
1169
1227
1395
1526
1519
1445
1459
1595
1724
1717
1612
1554
1607
1677
1650
1551
1505
1571
1657
1648
1569
1543
1620
1705
1683
1578
1522
1580
1666
1659
1576
1538
1600
1676
1661
1589
1594
1726
1875
1904
1834
1816
1931
2075
2087
1955
1834
1848
1943
1965
1871
1784
1819
1926
1956
1864
1784
1853
2032
2138
2084
1987
2017
2175
2292
2248
2121
2068
2125
2169
2107
2007
2000
2081
2109
1991
1815
1739
1788
1821
1725
1564
1494
1562
1660
1673
1618
1593
1620
1611
1503
1359
1294
1320
1336
1261
1149
1114
1176
1229
1173
1041
957
979
1028
991
872
791
838
963
1032
989
920
933
1026
1089
1047
960
937
1001
1060
1035
968
966
1054
1136
1116
1026
984
1043
1126
1129
1065
1041
1110
1198
1198
1113
1055
1097
1182
1196
1128
1078
1124
1218
1244
1176
1110
1139
1230
1266
1207
1140
1162
1253
1297
1242
1164
1170
1255
1307
1263
1190
1194
1281
1343
1304
1223
1211
1289
1355
1325
1244
1226
1302
1379
1358
1273
1238
1302
1381
1373
1296
1259
1318
1402
1404
1325
1273
1315
1395
1403
1332
1281
1325
1412
1430
1355
1285
1310
1395
1425
1363
1296
1318
1408
1450
1395
1321
1327
1407
1452
1403
1327
1331
1413
1471
1431
1352
1341
1416
1478
1448
1373
1360
1433
1498
1469
1381
1347
1406
1475
1458
1380
1347
1407
1485
1478
1399
1353
1400
1477
1480
1410
1368
1419
1504
1513
1436
1372
1403
1482
1498
1427
1362
1391
1480
1512
1448
1373
1385
1467
1507
1453
1380
1394
1483
1538
1489
1406
1400
1481
1543
1504
1420
1404
1479
1546
1514
1425
1391
1454
1523
1503
1422
1391
1456
1534
1523
1439
1394
1447
1527
1527
1452
1407
1457
1536
1538
1457
1398
1435
1514
1523
1448
1390
1427
1516
1539
1470
1403
1428
1514
1547
1487
1419
1439
1526
1568
1509
1428
1426
1505
1553
1507
1429
1425
1505
1564
1523
1435
1412
1482
1547
1519
1438
1414
1483
1554
1531
1446
1409
1469
1543
1534
1461
1428
1483
1557
1555
1487
1449
1492
1557
1555
1489
1449
1489
1561
1570
1503
1437
1449
1528
1600
1630
1652
1714
1803
1863
1870
1864
1890
1930
1923
1853
1784
1784
1839
1869
1831
1775
1769
1816
1849
1824
1774
1759
1781
1799
1799
1821
1887
1954
1951
1876
1810
1817
1863
1852
1744
1609
1552
1601
1686
1717
1679
1624
1594
1574
1522
1436
1359
1326
1313
1273
1207
1178
1235
1339
1397
1364
1299
1288
1338
1370
1333
1273
1274
1345
1399
1369
1304
1301
1379
1446
1423
1357
1354
1440
1518
1502
1439
1451
1572
1705
1757
1782
1920
2223
2583
2869
3086
3356
3749
4185
4540
4797
5050
5341
5580
5633
5484
5234
4959
4601
4055
3320
2531
1814
1180
558
-68
-610
-979
-1187
-1319
-1407
-1397
-1241
-996
-782
-649
-515
-283
30
288
401
433
528
729
924
992
947
927
1013
1142
1191
1148
1109
1146
1208
1205
1138
1107
1164
1244
1245
1185
1178
1291
1445
1513
1482
1461
1535
1659
1713
1667
1605
1609
1656
1655
1587
1529
1551
1622
1647
1599
1556
1589
1667
1693
1632
1560
1559
1618
1645
1603
1555
1573
1638
1660
1606
1558
1612
1750
1853
1847
1799
1829
1954
2062
2043
1929
1851
1879
1944
1938
1860
1813
1861
1939
1936
1852
1808
1897
2054
2129
2077
2013
2064
2209
2298
2252
2150
2117
2160
2173
2099
2018
2031
2106
2107
1973
1809
1753
1806
1825
1719
1565
1507
1574
1655
1654
1602
1589
1620
1604
1490
1352
1297
1326
1334
1252
1148
1128
1194
1235
1168
1047
988
1016
1035
959
835
787
862
968
992
935
906
972
1069
1089
1018
956
983
1057
1073
1013
968
1019
1126
1169
1108
1032
1043
1128
1172
1123
1058
1079
1177
1236
1187
1099
1087
1165
1227
1195
1123
1120
1205
1277
1248
1163
1137
1209
1287
1274
1198
1172
1240
1323
1317
1238
1195
1248
1327
1329
1258
1217
1271
1356
1364
1287
1228
1265
1349
1369
1301
1242
1276
1365
1395
1330
1258
1274
1357
1394
1340
1272
1288
1376
1426
1377
1300
1300
1381
1437
1399
1325
1322
1402
1465
1429
1344
1321
1389
1455
1430
1348
1320
1386
1461
1446
1362
1319
1371
1445
1440
1364
1323
1377
1461
1465
1385
1326
1365
1449
1466
1396
1335
1367
1452
1477
1408
1337
1356
1439
1475
1417
1349
1369
1459
1508
1455
1374
1373
1452
1505
1461
1382
1377
1458
1521
1485
1401
1380
1450
1517
1490
1409
1385
1454
1528
1509
1425
1386
1442
1517
1510
1436
1399
1455
1535
1533
1454
1404
1449
1529
1537
1464
1410
1449
1533
1548
1473
1404
1427
1507
1535
1473
1408
1430
1513
1549
1491
1416
1421
1498
1540
1492
1421
1428
1510
1562
1517
1434
1422
1496
1555
1521
1442
1428
1505
1576
1550
1464
1431
1492
1563
1547
1467
1434
1496
1575
1566
1481
1431
1481
1564
1569
1492
1437
1480
1564
1579
1506
1441
1468
1545
1564
1499
1437
1465
1549
1580
1514
1438
1448
1530
1571
1516
1439
1446
1532
1586
1539
1453
1442
1522
1587
1553
1469
1448
1523
1598
1576
1483
1434
1486
1576
1615
1609
1641
1743
1845
1866
1829
1830
1904
1968
1923
1806
1747
1807
1895
1886
1790
1732
1787
1876
1877
1793
1742
1788
1855
1841
1777
1791
1918
2033
1999
1858
1778
1841
1936
1898
1726
1577
1575
1674
1732
1696
1641
1638
1655
1607
1487
1385
1367
1392
1359
1248
1155
1181
1304
1401
1389
1315
1286
1334
1383
1356
1281
1253
1310
1386
1388
1323
1287
1339
1424
1441
1383
1343
1394
1486
1513
1454
1411
1480
1622
1717
1728
1765
1954
2282
2610
2852
3069
3378
3793
4200
4510
4766
5060
5382
5597
5600
5436
5219
4980
4612
4021
3262
2495
1810
1172
514
-129
-645
-974
-1175
-1335
-1440
-1404
-1206
-954
-780
-683
-542
-269
62
292
370
409
546
770
937
960
908
926
1045
1155
1157
1097
1091
1167
1224
1180
1093
1088
1188
1271
1236
1145
1147
1292
1453
1495
1436
1416
1516
1652
1697
1638
1581
1603
1654
1639
1559
1510
1551
1623
1628
1565
1531
1587
1672
1678
1600
1534
1558
1627
1637
1573
1527
1569
1647
1651
1571
1526
1609
1768
1857
1826
1781
1842
1985
2067
2007
1886
1842
1899
1948
1902
1815
1800
1878
1940
1892
1793
1783
1907
2053
2084
2016
1987
2080
2215
2255
2184
2110
2122
2165
2137
2040
1986
2038
2108
2063
1902
1763
1749
1799
1772
1641
1522
1518
1593
1629
1594
1567
1604
1644
1581
1428
1310
1309
1355
1320
1193
1099
1129
1220
1228
1119
1002
986
1038
1030
914
793
790
896
980
961
903
917
1013
1086
1054
967
941
1003
1064
1038
967
959
1047
1137
1130
1051
1013
1067
1140
1132
1060
1032
1104
1200
1209
1129
1070
1109
1192
1209
1144
1097
1142
1234
1257
1189
1124
1151
1239
1274
1219
1157
1182
1269
1310
1254
1183
1196
1283
1334
1289
1219
1229
1319
1377
1333
1247
1234
1311
1374
1341
1259
1246
1326
1402
1379
1292
1259
1324
1400
1386
1304
1267
1329
1412
1408
1326
1276
1325
1409
1416
1340
1285
1328
1414
1428
1349
1279
1307
1393
1423
1361
1298
1324
1414
1452
1393
1319
1330
1413
1459
1408
1333
1339
1423
1477
1429
1344
1334
1413
1475
1438
1356
1342
1420
1491
1463
1376
1346
1414
1489
1470
1387
1354
1419
1499
1487
1400
1352
1407
1493
1497
1420
1369
1417
1505
1519
1442
1375
1401
1480
1502
1439
1381
1411
1497
1526
1462
1389
1401
1480
1515
1456
1381
1388
1468
1512
1459
1375
1367
1443
1499
1462
1386
1379
1457
1521
1489
1403
1376
1441
1509
1488
1410
1383
1450
1527
1514
1432
1392
1449
1530
1529
1453
1410
1463
1547
1553
1475
1416
1451
1529
1539
1466
1408
1444
1529
1550
1479
1407
1426
1506
1536
1474
1404
1422
1508
1554
1503
1429
1431
1510
1562
1520
1447
1445
1524
1583
1547
1465
1445
1511
1569
1537
1456
1431
1496
1563
1540
1454
1418
1477
1552
1540
1460
1424
1487
1571
1567
1482
1429
1478
1561
1568
1494
1444
1488
1570
1584
1517
1457
1477
1541
1570
1560
1584
1685
1802
1849
1824
1813
1880
1974
1990
1903
1806
1800
1871
1910
1856
1770
1760
1832
1885
1843
1765
1757
1828
1870
1814
1744
1795
1956
2060
1987
1829
1777
1877
1970
1892
1692
1563
1606
1717
1742
1675
1636
1682
1719
1639
1478
1381
1407
1454
1389
1233
1142
1212
1361
1424
1359
1282
1306
1396
1421
1337
1247
1266
1370
1426
1364
1274
1283
1393
1470
1425
1333
1335
1451
1546
1506
1399
1388
1526
1681
1712
1669
1731
1991
2338
2606
2787
3023
3406
3850
4205
4452
4716
5074
5426
5599
5550
5398
5244
5034
4621
3975
3228
2522
1863
1171
447
-192
-642
-932
-1176
-1401
-1505
-1404
-1167
-957
-848
-749
-537
-217
73
229
301
410
601
788
878
882
894
968
1059
1095
1082
1087
1143
1196
1177
1107
1078
1140
1226
1237
1171
1131
1197
1331
1418
1420
1408
1461
1567
1636
1630
1599
1610
1652
1651
1583
1515
1522
1587
1619
1575
1517
1534
1618
1669
1624
1541
1525
1591
1639
1597
1519
1517
1607
1673
1620
1514
1507
1646
1800
1828
1759
1749
1873
2026
2052
1947
1855
1879
1952
1944
1846
1782
1837
1938
1943
1838
1759
1822
1971
2058
2027
1979
2027
2148
2220
2188
2130
2141
2195
2183
2078
1987
2013
2115
2139
2019
1856
1793
1832
1841
1737
1595
1541
1589
1627
1586
1537
1576
1675
1691
1557
1382
1319
1371
1393
1284
1129
1087
1178
1257
1198
1058
988
1034
1079
1002
847
762
819
927
952
895
869
942
1045
1063
986
921
948
1023
1035
964
909
952
1056
1103
1053
986
996
1070
1104
1055
994
1015
1106
1162
1123
1052
1051
1125
1177
1142
1075
1077
1160
1226
1197
1120
1102
1174
1245
1228
1157
1138
1208
1286
1276
1198
1161
1218
1297
1297
1227
1189
1245
1329
1333
1255
1199
1237
1320
1335
1266
1208
1244
1333
1362
1298
1229
1247
1328
1364
1312
1247
1263
1347
1391
1341
1266
1267
1344
1394
1353
1281
1283
1367
1430
1394
1309
1287
1354
1418
1392
1314
1294
1364
1438
1421
1339
1303
1361
1436
1428
1351
1312
1368
1450
1453
1378
1327
1369
1445
1452
1381
1331
1371
1452
1468
1398
1337
1367
1448
1472
1407
1344
1370
1457
1493
1431
1352
1359
1440
1486
1436
1359
1361
1442
1496
1451
1367
1351
1421
1479
1443
1361
1342
1412
1481
1456
1373
1342
1403
1476
1464
1390
1360
1424
1504
1500
1422
1375
1421
1498
1500
1426
1376
1419
1500
1511
1436
1372
1400
1479
1498
1429
1364
1391
1477
1510
1448
1376
1388
1470
1512
1461
1392
1403
1484
1531
1479
1397
1390
1464
1517
1476
1397
1388
1466
1533
1502
1416
1387
1452
1522
1504
1425
1394
1455
1528
1514
1431
1387
1436
1507
1500
1421
1376
1428
1511
1517
1438
1379
1414
1494
1508
1436
1375
1408
1496
1523
1454
1378
1392
1473
1511
1454
1380
1393
1481
1532
1479
1394
1390
1472
1531
1490
1410
1404
1484
1546
1508
1423
1402
1463
1512
1486
1451
1515
1669
1784
1772
1708
1730
1857
1956
1912
1778
1712
1774
1859
1837
1731
1675
1736
1826
1819
1728
1683
1749
1833
1808
1695
1654
1781
1963
2007
1882
1752
1770
1886
1921
1794
1619
1552
1608
1663
1642
1599
1618
1674
1658
1532
1390
1345
1386
1392
1290
1153
1112
1198
1307
1331
1280
1251
1294
1349
1333
1256
1212
1257
1336
1350
1284
1228
1263
1354
1393
1340
1281
1312
1416
1472
1419
1341
1368
1505
1622
1629
1603
1701
1965
2277
2514
2706
2980
3377
3789
4104
4355
4663
5054
5387
5518
5463
5355
5247
5031
4577
3915
3200
2532
1862
1124
378
-229
-635
-932
-1224
-1472
-1544
-1398
-1166
-1007
-929
-803
-546
-230
10
140
250
415
608
742
793
824
889
972
1017
1019
1033
1093
1162
1171
1111
1058
1080
1162
1210
1177
1115
1119
1212
1323
1370
1367
1389
1472
1562
1593
1575
1577
1626
1660
1614
1521
1483
1539
1608
1592
1514
1486
1561
1654
1649
1557
1500
1548
1624
1609
1514
1468
1544
1653
1651
1539
1465
1542
1704
1790
1756
1719
1792
1938
2019
1977
1901
1894
1944
1948
1875
1805
1824
1904
1933
1865
1779
1776
1867
1960
1985
1970
1989
2064
2139
2159
2139
2137
2171
2185
2126
2028
1983
2033
2105
2086
1962
1834
1798
1825
1804
1694
1578
1549
1590
1595
1534
1498
1566
1672
1661
1500
1332
1303
1376
1376
1232
1075
1067
1187
1251
1158
1014
979
1055
1085
973
811
759
843
931
919
860
872
968
1040
1009
933
922
993
1047
1009
932
927
1015
1099
1089
1022
1000
1058
1118
1095
1022
1006
1084
1174
1175
1101
1059
1112
1193
1200
1134
1094
1144
1229
1243
1174
1117
1148
1227
1245
1183
1128
1165
1257
1291
1231
1161
1173
1251
1287
1234
1166
1178
1261
1311
1266
1194
1196
1276
1333
1296
1222
1216
1295
1361
1333
1252
1230
1297
1364
1343
1268
1246
1314
1389
1375
1296
1260
1319
1396
1392
1318
1279
1333
1413
1413
1332
1276
1314
1391
1401
1328
1272
1311
1398
1423
1357
1290
1313
1398
1434
1379
1314
1335
1421
1464
1409
1330
1330
1406
1453
1409
1333
1331
1409
1467
1429
1346
1326
1393
1453
1424
1346
1327
1397
1466
1443
1357
1322
1385
1462
1454
1377
1341
1401
1485
1485
1405
1352
1396
1476
1485
1415
1366
1411
1498
1516
1444
1377
1403
1484
1509
1443
1373
1394
1479
1516
1453
1371
1373
1452
1499
1450
1373
1374
1457
1514
1472
1388
1372
1446
1507
1476
1398
1384
1461
1532
1506
1421
1387
1447
1514
1493
1411
1378
1441
1517
1504
1417
1369
1421
1504
1507
1431
1381
1429
1514
1525
1449
1384
1413
1491
1507
1437
1373
1401
1487
1517
1453
1381
1397
1480
1519
1465
1396
1411
1496
1544
1491
1407
1397
1467
1515
1470
1391
1383
1459
1520
1484
1399
1378
1449
1521
1500
1422
1401
1474
1552
1531
1440
1401
1466
1547
1530
1438
1398
1468
1560
1554
1461
1406
1458
1534
1521
1447
1447
1583
1747
1790
1720
1686
1787
1935
1970
1863
1751
1761
1853
1884
1797
1699
1714
1821
1874
1800
1698
1706
1817
1875
1783
1644
1648
1828
1999
1979
1819
1729
1811
1933
1904
1723
1571
1575
1656
1663
1585
1555
1642
1732
1674
1486
1345
1364
1446
1413
1245
1101
1120
1253
1332
1291
1226
1254
1349
1383
1304
1210
1220
1318
1377
1324
1233
1226
1320
1400
1377
1297
1280
1366
1460
1456
1371
1328
1406
1538
1604
1588
1602
1751
2010
2269
2479
2707
3030
3421
3780
4069
4358
4720
5108
5387
5483
5455
5393
5279
5003
4508
3868
3202
2539
1820
1044
321
-229
-613
-943
-1266
-1494
-1513
-1348
-1155
-1042
-959
-787
-505
-219
-23
109
265
462
628
710
751
824
932
1000
995
980
1032
1134
1187
1137
1050
1036
1112
1187
1175
1110
1091
1161
1256
1301
1306
1343
1438
1529
1556
1543
1564
1638
1692
1656
1559
1502
1536
1600
1601
1535
1490
1529
1612
1644
1595
1534
1539
1598
1624
1575
1510
1515
1592
1646
1606
1516
1488
1573
1694
1750
1736
1743
1829
1941
1985
1947
1902
1912
1942
1916
1838
1792
1833
1908
1914
1835
1763
1784
1878
1949
1958
1954
2002
2086
2134
2122
2105
2142
2201
2192
2091
1991
1990
2075
2123
2051
1915
1836
1844
1850
1771
1646
1580
1602
1622
1565
1487
1503
1624
1709
1634
1456
1342
1366
1415
1344
1175
1068
1116
1216
1210
1087
989
1009
1073
1040
901
783
788
864
890
845
825
892
982
991
922
879
929
1007
1006
924
873
928
1032
1066
1008
955
988
1070
1089
1022
963
1000
1100
1146
1092
1022
1035
1118
1162
1116
1051
1068
1161
1222
1183
1107
1100
1176
1236
1205
1133
1127
1207
1276
1251
1172
1148
1214
1284
1268
1194
1170
1237
1316
1308
1230
1188
1240
1319
1321
1250
1207
1258
1343
1354
1282
1226
1261
1342
1360
1294
1238
1274
1361
1390
1325
1257
1277
1361
1399
1343
1275
1293
1382
1430
1377
1294
1290
1369
1424
1384
1306
1301
1380
1445
1412
1328
1305
1371
1435
1410
1329
1305
1373
1449
1434
1349
1305
1357
1432
1428
1354
1315
1370
1452
1455
1378
1324
1365
1446
1459
1388
1333
1372
1459
1482
1413
1343
1362
1442
1472
1411
1341
1357
1441
1483
1429
1351
1350
1425
1473
1430
1358
1359
1439
1498
1461
1380
1363
1434
1498
1471
1393
1371
1439
1510
1489
1406
1370
1428
1500
1488
1409
1371
1430
1513
1512
1431
1377
1420
1502
1510
1433
1374
1412
1498
1517
1443
1371
1391
1472
1501
1441
1375
1396
1480
1517
1461
1389
1398
1478
1521
1471
1402
1412
1498
1551
1504
1420
1409
1482
1538
1498
1414
1395
1466
1529
1498
1413
1384
1446
1513
1494
1416
1390
1457
1537
1529
1448
1401
1450
1527
1526
1448
1397
1442
1524
1533
1454
1388
1418
1500
1519
1451
1389
1421
1509
1538
1470
1400
1423
1508
1536
1467
1396
1425
1520
1556
1485
1403
1422
1513
1546
1475
1409
1474
1644
1764
1748
1685
1714
1848
1954
1930
1829
1779
1823
1876
1847
1762
1722
1773
1844
1838
1762
1717
1770
1857
1857
1751
1659
1709
1878
1996
1955
1830
1784
1860
1932
1874
1721
1618
1627
1658
1624
1569
1600
1711
1755
1638
1456
1379
1436
1477
1379
1209
1134
1205
1301
1303
1247
1250
1340
1405
1357
1255
1228
1305
1378
1351
1268
1245
1315
1392
1386
1326
1310
1376
1453
1458
1401
1367
1410
1493
1544
1553
1575
1669
1834
2025
2225
2463
2765
3110
3442
3740
4044
4403
4796
5137
5352
5452
5490
5473
5327
4991
4487
3900
3275
2581
1793
997
325
-171
-571
-961
-1304
-1480
-1444
-1297
-1175
-1093
-964
-733
-463
-244
-73
114
336
520
612
660
753
897
997
991
948
980
1100
1200
1185
1095
1048
1097
1171
1183
1135
1107
1145
1213
1248
1256
1293
1385
1483
1524
1514
1525
1596
1678
1688
1611
1526
1515
1571
1607
1573
1514
1511
1578
1640
1627
1563
1533
1575
1626
1607
1530
1490
1542
1627
1640
1563
1489
1511
1613
1694
1704
1701
1762
1873
1946
1939
1908
1925
1971
1964
1880
1802
1816
1895
1931
1871
1789
1782
1851
1910
1914
1915
1979
2082
2134
2106
2076
2123
2217
2245
2157
2038
2006
2075
2136
2101
1998
1926
1920
1915
1840
1726
1658
1663
1669
1604
1506
1483
1575
1686
1686
1566
1444
1415
1440
1403
1277
1155
1136
1197
1218
1148
1061
1047
1089
1078
970
844
806
852
885
852
816
860
963
1015
968
898
907
986
1026
969
886
888
978
1049
1026
966
969
1049
1109
1073
996
988
1073
1155
1142
1070
1046
1109
1176
1158
1083
1056
1123
1205
1199
1119
1073
1123
1203
1207
1135
1090
1141
1230
1248
1180
1121
1153
1235
1259
1198
1144
1181
1273
1309
1249
1180
1196
1278
1316
1262
1192
1206
1293
1343
1291
1209
1205
1286
1344
1306
1228
1221
1301
1370
1342
1260
1235
1302
1369
1347
1270
1245
1312
1385
1370
1286
1245
1298
1375
1371
1296
1252
1302
1383
1389
1313
1255
1289
1367
1382
1317
1265
1302
1389
1415
1351
1284
1305
1388
1423
1368
1304
1323
1409
1452
1401
1325
1326
1401
1446
1401
1326
1326
1405
1461
1421
1339
1321
1390
1451
1422
1345
1328
1398
1466
1443
1361
1329
1389
1462
1451
1375
1342
1402
1481
1477
1397
1347
1392
1470
1474
1398
1343
1382
1463
1477
1402
1334
1358
1437
1462
1400
1338
1365
1454
1490
1430
1353
1362
1446
1493
1443
1366
1367
1449
1505
1461
1375
1356
1423
1479
1443
1363
1346
1420
1490
1464
1379
1347
1411
1487
1476
1399
1367
1428
1506
1500
1419
1372
1418
1493
1490
1412
1362
1410
1496
1507
1430
1367
1400
1484
1507
1442
1379
1407
1492
1523
1459
1384
1394
1472
1507
1449
1373
1379
1457
1503
1453
1371
1360
1431
1485
1452
1383
1378
1453
1516
1488
1408
1379
1440
1508
1493
1418
1388
1449
1528
1523
1443
1395
1445
1522
1513
1422
1380
1481
1653
1741
1697
1644
1709
1861
1946
1891
1791
1777
1847
1879
1807
1711
1710
1798
1850
1792
1702
1704
1802
1868
1808
1687
1653
1759
1901
1947
1889
1830
1847
1895
1885
1803
1718
1683
1666
1619
1566
1581
1674
1747
1702
1562
1452
1444
1475
1433
1310
1204
1195
1248
1267
1236
1223
1282
1363
1370
1295
1232
1257
1335
1359
1298
1234
1253
1334
1379
1342
1290
1307
1388
1443
1417
1360
1361
1432
1504
1523
1524
1583
1718
1875
2017
2189
2455
2807
3150
3424
3682
4018
4440
4844
5126
5295
5424
5530
5521
5309
4922
4454
3946
3335
2570
1727
971
389
-84
-553
-1002
-1312
-1409
-1359
-1285
-1226
-1115
-909
-660
-457
-292
-87
179
420
541
574
647
813
978
1018
951
924
1025
1172
1219
1140
1058
1078
1166
1204
1157
1107
1137
1215
1251
1224
1221
1309
1447
1521
1499
1472
1534
1660
1727
1670
1561
1520
1572
1626
1599
1525
1503
1564
1634
1632
1573
1545
1586
1637
1622
1550
1507
1544
1612
1626
1574
1521
1528
1579
1616
1629
1663
1745
1838
1881
1875
1884
1940
1996
1976
1885
1814
1830
1897
1914
1854
1791
1800
1859
1881
1846
1836
1920
2052
2114
2071
2021
2068
2188
2251
2186
2069
2022
2066
2110
2078
2005
1967
1975
1958
1867
1751
1696
1708
1710
1635
1522
1473
1531
1631
1667
1612
1529
1484
1471
1428
1331
1229
1185
1196
1202
1161
1105
1090
1115
1113
1037
927
866
875
892
861
818
839
934
1017
1008
942
922
983
1048
1027
946
911
972
1056
1062
1000
971
1032
1112
1109
1028
979
1032
1129
1153
1090
1037
1075
1161
1183
1116
1054
1087
1181
1222
1167
1099
1114
1197
1239
1190
1120
1128
1210
1260
1215
1137
1128
1201
1258
1228
1161
1159
1240
1310
1287
1213
1194
1263
1333
1314
1236
1207
1271
1348
1336
1253
1209
1263
1344
1349
1278
1237
1289
1373
1381
1308
1252
1289
1368
1379
1308
1252
1288
1375
1398
1328
1257
1276
1358
1390
1331
1263
1279
1363
1404
1351
1276
1279
1357
1405
1361
1290
1294
1377
1435
1397
1316
1302
1375
1438
1409
1332
1313
1385
1457
1437
1356
1323
1383
1454
1441
1361
1324
1382
1460
1454
1368
1313
1358
1442
1453
1382
1327
1368
1454
1472
1400
1333
1359
1442
1470
1407
1342
1367
1458
1499
1441
1367
1375
1457
1502
1452
1379
1385
1469
1523
1475
1388
1373
1445
1503
1467
1386
1368
1440
1510
1486
1405
1373
1431
1496
1476
1397
1365
1426
1502
1494
1415
1371
1424
1506
1510
1436
1389
1436
1519
1529
1452
1388
1418
1498
1518
1452
1390
1417
1500
1527
1463
1390
1403
1481
1515
1460
1390
1403
1487
1533
1481
1397
1389
1463
1518
1481
1405
1394
1467
1532
1506
1428
1402
1462
1524
1502
1428
1405
1471
1544
1529
1447
1406
1460
1537
1534
1456
1408
1456
1540
1548
1469
1406
1442
1532
1555
1483
1413
1445
1546
1587
1513
1416
1420
1517
1575
1512
1409
1416
1562
1714
1746
1689
1681
1788
1915
1941
1873
1822
1851
1898
1870
1783
1735
1780
1851
1849
1775
1727
1771
1852
1859
1771
1680
1691
1797
1897
1918
1882
1863
1883
1893
1853
1786
1745
1727
1680
1597
1549
1605
1721
1766
1674
1524
1452
1480
1497
1413
1279
1212
1244
1282
1251
1200
1231
1342
1412
1359
1255
1232
1314
1383
1341
1242
1218
1304
1388
1370
1292
1277
1363
1450
1438
1362
1338
1409
1491
1499
1468
1501
1632
1782
1877
1966
2168
2510
2883
3168
3387
3671
4081
4526
4870
5090
5274
5474
5607
5542
5263
4878
4469
3988
3329
2500
1656
957
414
-85
-600
-1050
-1315
-1380
-1351
-1320
-1269
-1126
-891
-656
-483
-324
-93
196
423
510
534
632
825
984
991
910
907
1042
1190
1201
1095
1025
1079
1174
1181
1105
1069
1141
1237
1242
1177
1179
1315
1482
1531
1461
1424
1524
1684
1735
1633
1509
1502
1592
1636
1566
1472
1477
1575
1639
1594
1511
1507
1589
1644
1593
1500
1483
1564
1635
1609
1528
1499
1554
1612
1608
1587
1642
1772
1875
1874
1830
1858
1967
2039
1976
1844
1790
1861
1946
1921
1817
1770
1835
1915
1897
1820
1826
1965
2113
2131
2041
2003
2100
2238
2263
2162
2063
2064
2119
2118
2044
1985
1993
2015
1958
1827
1723
1712
1741
1709
1594
1485
1472
1548
1625
1633
1586
1542
1517
1479
1398
1299
1230
1209
1202
1171
1128
1114
1136
1145
1091
991
918
907
912
872
804
790
870
978
1008
950
903
943
1030
1054
988
922
945
1028
1066
1017
964
995
1088
1131
1074
996
1001
1083
1136
1096
1025
1026
1107
1167
1131
1058
1054
1137
1209
1186
1110
1089
1156
1223
1202
1126
1103
1170
1244
1228
1147
1109
1168
1246
1242
1168
1131
1191
1282
1292
1217
1164
1208
1296
1317
1252
1198
1238
1330
1359
1295
1227
1247
1331
1367
1311
1243
1260
1346
1390
1337
1256
1253
1330
1381
1339
1266
1264
1344
1406
1373
1295
1279
1349
1411
1382
1302
1281
1348
1414
1388
1301
1265
1327
1405
1398
1323
1289
1350
1435
1436
1357
1303
1341
1416
1424
1353
1298
1332
1410
1425
1358
1299
1329
1411
1439
1381
1324
1354
1444
1481
1422
1346
1351
1428
1468
1415
1340
1343
1421
1470
1423
1343
1336
1412
1469
1431
1354
1347
1427
1495
1467
1383
1358
1425
1494
1471
1390
1359
1424
1500
1487
1402
1357
1408
1488
1486
1409
1361
1409
1493
1502
1424
1360
1392
1473
1492
1424
1363
1396
1484
1514
1446
1371
1384
1466
1506
1451
1380
1392
1475
1522
1471
1392
1387
1463
1517
1479
1404
1398
1476
1540
1509
1427
1403
1466
1529
1505
1427
1400
1464
1536
1521
1439
1398
1450
1523
1516
1439
1398
1450
1528
1527
1445
1388
1429
1510
1519
1442
1380
1416
1505
1529
1458
1386
1406
1490
1524
1465
1397
1416
1503
1543
1483
1402
1405
1489
1541
1490
1404
1400
1489
1559
1518
1416
1387
1468
1551
1522
1412
1365
1457
1604
1668
1636
1619
1700
1823
1873
1835
1802
1839
1887
1855
1755
1696
1736
1808
1808
1736
1691
1733
1808
1819
1754
1689
1684
1726
1766
1795
1834
1878
1890
1851
1794
1767
1772
1762
1691
1582
1513
1537
1627
1695
1676
1589
1506
1475
1461
1412
1327
1261
1246
1245
1205
1151
1161
1257
1351
1344
1259
1211
1264
1342
1331
1239
1188
1249
1343
1344
1262
1225
1303
1411
1417
1330
1283
1351
1451
1460
1394
1389
1513
1673
1749
1767
1882
2176
2550
2848
3052
3294
3673
4124
4503
4765
4998
5271
5515
5586
5438
5166
4867
4509
3976
3231
2395
1632
1003
433
-144
-679
-1062
-1255
-1336
-1390
-1403
-1303
-1080
-839
-678
-560
-359
-41
269
423
440
483
660
879
972
915
863
947
1111
1188
1126
1045
1067
1157
1187
1118
1060
1108
1212
1243
1172
1121
1201
1371
1480
1462
1409
1451
1588
1693
1671
1574
1522
1559
1605
1577
1504
1482
1546
1618
1610
1542
1516
1575
1644
1629
1544
1495
1542
1618
1620
1551
1512
1556
1618
1607
1549
1562
1694
1846
1886
1823
1798
1899
2039
2059
1941
1827
1841
1935
1962
1875
1788
1814
1913
1939
1853
1785
1865
2045
2148
2092
1997
2026
2174
2279
2236
2123
2088
2146
2183
2117
2020
2009
2071
2080
1962
1807
1748
1791
1811
1716
1569
1501
1551
1633
1653
1620
1603
1616
1598
1502
1374
1300
1296
1296
1235
1150
1123
1173
1222
1181
1064
966
951
972
938
841
776
822
938
1005
970
905
914
996
1049
1006
927
916
987
1046
1021
958
957
1041
1114
1090
1010
984
1048
1122
1113
1046
1024
1092
1174
1171
1099
1062
1118
1199
1202
1127
1076
1117
1195
1207
1141
1094
1140
1232
1261
1200
1140
1168
1254
1287
1229
1164
1185
1272
1314
1260
1185
1189
1268
1316
1271
1199
1203
1286
1344
1304
1224
1212
1287
1350
1322
1245
1230
1303
1375
1355
1274
1242
1302
1373
1362
1289
1258
1318
1396
1393
1317
1273
1321
1398
1401
1327
1278
1323
1405
1416
1341
1277
1306
1388
1413
1351
1292
1320
1406
1440
1380
1307
1315
1390
1428
1379
1314
1329
1413
1462
1416
1340
1338
1414
1467
1425
1347
1337
1412
1472
1435
1348
1321
1385
1450
1427
1348
1323
1390
1465
1451
1369
1329
1383
1459
1454
1379
1337
1391
1472
1475
1396
1339
1376
1456
1467
1393
1332
1364
1448
1471
1402
1332
1354
1440
1477
1420
1351
1364
1442
1478
