4975
5007
5028
5040
5041
5031
5010
4978
4937
4886
4826
4757
4677
4586
4484
4368
4238
4095
3938
3767
3582
3385
3177
2957
2730
2494
2252
2005
1753
1498
1238
976
712
447
181
-84
-351
-616
-880
-1142
-1400
-1654
-1903
-2146
-2384
-2614
-2838
-3053
-3259
-3457
-3643
-3819
-3982
-4132
-4268
-4390
-4499
-4594
-4677
-4748
-4810
-4862
-4904
-4938
-4961
-4974
-4976
-4967
-4946
-4916
-4875
-4824
-4764
-4694
-4613
-4520
-4415
-4296
-4162
-4014
-3853
-3678
-3492
-3295
-3089
-2873
-2649
-2417
-2179
-1935
-1685
-1432
-1176
-917
-656
-394
-132
130
394
657
921
1183
1443
1700
1952
2198
2438
2671
2896
3113
3320
3518
3705
3882
4047
4200
4340
4466
4577
4674
4756
4826
4885
4933
4972
5001
5020
5029
5027
5014
4990
4956
4912
4859
4797
4725
4643
4549
4442
4322
4186
4036
3872
3695
3507
3307
3098
2880
2654
2422
2182
1937
1685
1429
1168
904
637
370
103
-163
-428
-691
-953
-1213
-1470
-1725
-1976
-2223
-2465
-2701
-2930
-3151
-3362
-3563
-3752
-3929
-4092
-4242
-4377
-4498
-4605
-4699
-4779
-4848
-4906
-4954
-4993
-5021
-5039
-5047
-5043
-5028
-5002
-4965
-4919
-4863
-4797
-4721
-4635
-4537
-4427
-4302
-4165
-4013
-3849
-3673
-3486
-3289
-3083
-2868
-2646
-2417
-2182
-1941
-1696
-1446
-1193
-936
-676
-413
-149
117
384
653
921
1188
1451
1711
1965
2214
2455
2688
2913
3129
3335
3533
3720
3897
4062
4214
4352
4474
4581
4673
4752
4818
4874
4920
4957
4985
5003
5011
5008
4995
4971
4937
4894
4842
4780
4709
4628
4534
4427
4306
4169
4016
3848
3667
3473
3267
3051
2827
2595
2357
2112
1862
1607
1347
1083
815
545
273
  1
-269
-539
-805
-1068
-1326
-1579
-1826
-2067
-2302
-2532
-2754
-2971
-3180
-3382
-3575
-3758
-3931
-4092
-4239
-4372
-4491
-4595
-4685
-4762
-4828
-4883
-4928
-4964
-4990
-5006
-5011
-5006
-4990
-4962
-4925
-4877
-4820
-4753
-4676
-4589
-4489
-4376
-4250
-4109
-3954
-3787
-3608
-3418
-3220
-3012
-2797
-2574
-2344
-2108
-1865
-1617
-1364
-1105
-843
-578
-311
-43
224
492
759
1024
1286
1545
1799
2048
2291
2528
2758
2980
3194
3400
3596
3782
3956
4118
4265
4396
4511
4611
4697
4771
4834
4888
4933
4969
4996
5014
5021
5017
5003
4978
4943
4898
4843
4778
4701
4612
4509
4391
4258
4111
3950
3778
3595
3403
3201
2991
2772
2545
2311
2068
1819
1562
1301
1034
765
493
222
-48
-317
-584
-848
-1109
-1367
-1620
-1868
-2110
-2347
-2578
-2802
-3019
-3229
-3430
-3622
-3803
-3974
-4132
-4276
-4406
-4521
-4621
-4707
-4781
-4844
-4896
-4939
-4971
-4994
-5006
-5008
-4998
-4977
-4945
-4903
-4852
-4791
-4721
-4640
-4548
-4445
-4329
-4199
-4057
-3902
-3734
-3555
-3366
-3166
-2957
-2739
-2513
-2279
-2039
-1793
-1543
-1289
-1033
-774
-514
-252
 10
273
538
804
1070
1335
1598
1858
2112
2358
2595
2823
3039
3244
3437
3620
3792
3954
4105
4246
4374
4490
4593
4683
4760
4826
4881
4925
4960
4985
5000
5004
4997
4979
4950
4911
4862
4803
4734
4653
4561
4455
4335
4200
4051
3889
3715
3530
3335
3130
2916
2694
2464
2226
1982
1732
1476
1215
950
682
414
145
-122
-387
-650
-911
-1168
-1421
-1670
-1914
-2152
-2385
-2611
-2830
-3042
-3246
-3442
-3629
-3806
-3973
-4127
-4269
-4397
-4510
-4609
-4694
-4766
-4827
-4878
-4918
-4949
-4969
-4979
-4978
-4965
-4941
-4906
-4861
-4806
-4742
-4668
-4584
-4489
-4382
-4261
-4128
-3982
-3824
-3654
-3473
-3284
-3086
-2880
-2667
-2447
-2220
-1987
-1748
-1503
-1252
-996
-736
-472
-205
 64
335
608
879
1149
1415
1676
1932
2180
2420
2652
2875
3089
3293
3488
3674
3850
4016
4172
4314
4444
4558
4658
4744
4818
4879
4930
4971
5002
5023
5033
5032
5020
4997
4962
4918
4864
4801
4727
4644
4549
4441
4319
4182
4031
3866
3687
3495
3293
3080
2858
2629
2394
2153
1907
1657
1403
1145
884
620
353
 85
-182
-451
-719
-985
-1247
-1506
-1760
-2007
-2248
-2481
-2707
-2924
-3134
-3335
-3527
-3709
-3881
-4041
-4188
-4322
-4442
-4547
-4639
-4719
-4787
-4844
-4892
-4930
-4958
-4976
-4984
-4981
-4966
-4941
-4906
-4860
-4805
-4740
-4666
-4582
-4486
-4378
-4256
-4121
-3971
-3809
-3633
-3446
-3248
-3040
-2823
-2598
-2365
-2125
-1879
-1629
-1375
-1118
-860
-600
-340
-79
181
443
706
969
1232
1493
1752
2006
2255
2497
2731
2954
3166
3368
3558
3737
3905
4063
4209
4343
4464
4571
4665
4746
4815
4874
4923
4962
4991
5011
5020
5017
5004
4980
4945
4900
4845
4781
4706
4620
4521
4408
4281
4139
3982
3813
3631
3439
3238
3027
2809
2582
2348
2106
1857
1601
1339
1072
800
528
255
-15
-283
-548
-808
-1065
-1317
-1564
-1808
-2048
-2284
-2515
-2742
-2963
-3178
-3384
-3581
-3767
-3941
-4101
-4247
-4378
-4494
-4595
-4682
-4758
-4822
-4876
-4921
-4956
-4981
-4996
-5000
-4993
-4975
-4946
-4906
-4857
-4798
-4730
-4652
-4564
-4464
-4352
-4226
-4087
-3934
-3768
-3590
-3401
-3201
-2993
-2775
-2550
-2317
-2079
-1834
-1585
-1331
-1074
-813
-549
-283
-15
254
525
796
1066
1333
1594
1850
2097
2336
2567
2790
3006
3213
3414
3607
3792
3968
4134
4286
4425
4547
4654
4744
4819
4882
4933
4974
5006
5028
5041
5044
5037
5019
4992
4954
4908
4853
4789
4714
4629
4530
4416
4286
4139
3978
3802
3615
3416
3209
2994
2772
2542
2306
2063
1814
1558
1297
1032
763
492
222
-47
-315
-581
-843
-1103
-1360
-1612
-1860
-2103
-2340
-2571
-2794
-3010
-3217
-3414
-3602
-3779
-3944
-4098
-4239
-4367
-4480
-4581
-4669
-4745
-4810
-4864
-4909
-4944
-4969
-4983
-4986
-4977
-4957
-4926
-4885
-4834
-4774
-4704
-4624
-4532
-4430
-4314
-4186
-4044
-3890
-3723
-3545
-3355
-3155
-2945
-2727
-2500
-2266
-2026
-1779
-1527
-1270
-1010
-748
-483
-217
 49
316
582
847
1110
1370
1625
1875
2119
2356
2586
2808
3022
3227
3424
3611
3789
3958
4117
4264
4398
4519
4625
4718
4796
4863
4917
4962
4996
5021
5035
5038
5031
5012
4983
4943
4894
4835
4767
4687
4596
4492
4373
4240
4093
3931
3755
3567
3367
3157
2937
2710
2476
2236
1992
1743
1488
1230
966
699
430
159
-111
-381
-649
-915
-1178
-1436
-1690
-1938
-2180
-2416
-2646
-2868
-3082
-3288
-3485
-3672
-3849
-4014
-4166
-4304
-4428
-4538
-4633
-4716
-4788
-4848
-4899
-4941
-4973
-4995
-5006
-5007
-4996
-4975
-4943
-4901
-4849
-4788
-4718
-4636
-4544
-4438
-4318
-4183
-4034
-3870
-3693
-3505
-3306
-3098
-2881
-2658
-2427
-2191
-1949
-1701
-1450
-1194
-935
-673
-409
-144
121
387
653
919
1182
1443
1700
1953
2201
2442
2677
2904
3121
3330
3527
3714
3890
4053
4203
4340
4462
4570
4664
4746
4816
4876
4927
4968
5001
5023
5035
5036
5026
5005
4974
4932
4881
4820
4749
4666
4570
4461
4336
4196
4042
3873
3690
3496
3291
3076
2854
2625
2390
2152
1910
1664
1414
1160
901
638
371
101
-170
-443
-715
-984
-1250
-1510
-1763
-2009
-2247
-2478
-2702
-2919
-3129
-3331
-3526
-3712
-3887
-4050
-4200
-4335
-4455
-4560
-4650
-4727
-4792
-4847
-4891
-4927
-4952
-4968
-4974
-4968
-4952
-4925
-4888
-4841
-4784
-4718
-4642
-4555
-4456
-4345
-4220
-4081
-3929
-3765
-3590
-3404
-3208
-3003
-2789
-2567
-2337
-2100
-1858
-1610
-1359
-1104
-847
-587
-326
-62
203
471
741
1011
1281
1548
1810
2065
2313
2551
2779
2998
3207
3406
3594
3772
3939
4096
4242
4376
4497
4605
4699
4782
4852
4912
4961
5001
5031
5051
5059
5057
5043
5019
4983
4938
4883
4818
4744
4658
4560
4449
4323
4184
4031
3864
3684
3493
3289
3075
2851
2617
2376
2128
1874
1616
1354
1088
822
554
286
 19
-247
-512
-775
-1035
-1292
-1545
-1793
-2035
-2271
-2500
-2723
-2939
-3147
-3348
-3540
-3723
-3896
-4058
-4207
-4342
-4463
-4569
-4661
-4740
-4806
-4861
-4906
-4941
-4965
-4980
-4983
-4976
-4957
-4928
-4889
-4840
-4782
-4713
-4635
-4545
-4443
-4328
-4199
-4056
-3901
-3732
-3552
-3360
-3158
-2947
-2728
-2500
-2266
-2026
-1781
-1532
-1280
-1025
-768
-510
-251
  8
268
529
790
1052
1313
1572
1828
2080
2327
2567
2800
3023
3237
3439
3631
3810
3979
4135
4278
4409
4525
4628
4718
4794
4859
4914
4958
4993
5017
5032
5036
5029
5011
4982
4943
4894
4836
4767
4688
4597
4493
4375
4244
4099
3940
3769
3586
3392
3187
2972
2748
2515
2275
2028
1775
1517
1254
988
720
451
182
-85
-353
-618
-881
-1141
-1397
-1649
-1895
-2137
-2373
-2603
-2827
-3044
-3253
-3453
-3644
-3824
-3992
-4147
-4289
-4415
-4527
-4625
-4709
-4780
-4841
-4891
-4932
-4963
-4984
-4995
-4995
-4983
-4961
-4928
-4885
-4832
-4769
-4697
-4614
-4520
-4414
-4295
-4162
-4016
-3858
-3687
-3505
-3314
-3112
-2902
-2684
-2459
-2226
-1988
-1743
-1494
-1240
-982
-722
-460
-196
 68
334
599
865
1129
1392
1651
1907
2157
2401
2638
2866
3085
3292
3489
3674
3846
4007
4155
4290
4412
4521
4617
4702
4776
4841
4895
4941
4977
5003
5019
5023
5016
4998
4969
4930
4880
4821
4752
4672
4580
4475
4356
4223
4075
3913
3736
3547
3344
3130
2906
2673
2433
2188
1938
1684
1427
1167
904
639
372
104
-163
-431
-696
-959
-1218
-1473
-1723
-1967
-2206
-2438
-2663
-2882
-3094
-3298
-3494
-3680
-3856
-4021
-4173
-4312
-4436
-4545
-4641
-4724
-4795
-4855
-4905
-4945
-4975
-4995
-5004
-5002
-4988
-4963
-4927
-4882
-4827
-4762
-4688
-4602
-4506
-4396
-4273
-4137
-3987
-3823
-3648
-3462
-3267
-3063
-2851
-2633
-2409
-2179
-1943
-1703
-1458
-1207
-951
-690
-425
-157
113
385
658
929
1196
1459
1716
1965
2208
2443
2671
2892
3106
3313
3511
3701
3880
4049
4204
4345
4470
4581
4676
4757
4826
4885
4933
4972
5001
5021
5029
5027
5013
4989
4954
4909
4854
4790
4715
4630
4532
4421
4297
4158
4006
3840
3663
3474
3275
3066
2847
2621
2387
2146
1899
1646
1389
1127
862
594
326
 57
-210
-476
-741
-1003
-1263
-1518
-1771
-2018
-2261
-2498
-2729
-2952
-3166
-3369
-3561
-3741
-3907
-4059
-4197
-4322
-4433
-4532
-4620
-4697
-4765
-4824
-4873
-4914
-4945
-4965
-4975
-4973
-4960
-4935
-4900
-4855
-4801
-4736
-4662
-4577
-4480
-4371
-4248
-4112
-3962
-3800
-3625
-3439
-3243
-3036
-2820
-2595
-2363
-2124
-1879
-1630
-1377
-1122
-864
-605
-345
-83
179
445
712
980
1249
1516
1779
2037
2287
2530
2762
2984
3195
3394
3583
3760
3926
4082
4226
4359
4478
4584
4676
4756
4824
4881
4928
4966
4993
5010
5017
5013
4997
4970
4933
4886
4830
4764
4687
4600
4501
4388
4260
4118
3961
3791
3607
3411
3204
2987
2761
2528
2290
2046
1798
1545
1287
1025
759
490
220
-50
-321
-591
-858
-1123
-1382
-1636
-1885
-2126
-2361
-2589
-2809
-3023
-3229
-3427
-3617
-3798
-3969
-4128
-4273
-4405
-4522
-4625
-4713
-4789
-4853
-4906
-4950
-4983
-5006
-5019
-5020
-5010
-4989
-4957
-4915
-4864
-4803
-4733
-4653
-4561
-4458
-4341
-4210
-4066
-3908
-3737
-3555
-3361
-3157
-2945
-2724
-2495
-2260
-2018
-1771
-1518
-1260
-998
-733
-466
-197
 72
341
609
875
1139
1400
1656
1906
2151
2389
2620
2844
3061
3269
3469
3658
3836
4003
4156
4296
4422
4534
4632
4717
4792
4855
4910
4956
4992
5019
5037
5043
5039
5024
4998
4962
4917
4861
4795
4717
4626
4521
4399
4262
4108
3939
3757
3562
3358
3145
2924
2698
2465
2227
1983
1733
1478
1216
950
679
406
133
-137
-406
-671
-931
-1187
-1438
-1684
-1926
-2164
-2397
-2626
-2850
-3067
-3277
-3478
-3668
-3846
-4012
-4163
-4301
-4424
-4532
-4627
-4710
-4781
-4841
-4892
-4933
-4964
-4985
-4995
-4994
-4981
-4958
-4923
-4878
-4824
-4760
-4687
-4603
-4509
-4402
-4283
-4152
-4007
-3849
-3679
-3497
-3304
-3101
-2889
-2668
-2440
-2205
-1965
-1719
-1469
-1215
-958
-698
-435
-170
 95
362
630
897
1162
1423
1680
1931
2175
2412
2641
2862
3075
3279
3475
3661
3837
4002
4156
4297
4424
4537
4636
4722
4796
4859
4913
4957
4991
5016
5030
5033
5025
5007
4977
4938
4888
4828
4757
4674
4578
4466
4338
4194
4035
3862
3676
3480
3274
3060
2839
2611
2378
2140
1897
1649
1395
1137
874
609
341
 72
-196
-463
-729
-991
-1251
-1506
-1755
-2000
-2238
-2470
-2695
-2912
-3122
-3324
-3517
-3701
-3874
-4036
-4185
-4320
-4442
-4549
-4642
-4723
-4791
-4849
-4896
-4933
-4961
-4978
-4985
-4980
-4964
-4937
-4900
-4852
-4795
-4729
-4653
-4567
-4469
-4358
-4234
-4096
-3945
-3780
-3604
-3417
-3219
-3013
-2799
-2576
-2347
-2112
-1872
-1626
-1377
-1123
-867
-607
-345
-80
187
458
729
1001
1271
1537
1797
2049
2292
2526
2752
2967
3174
3372
3561
3741
3911
4070
4218
4354
4475
4584
4678
4760
4829
4888
4936
4976
5005
5024
5033
5031
5017
4993
4959
4914
4860
4796
4721
4635
4536
4423
4295
4152
3994
3823
3639
3444
3238
3023
2799
2567
2329
2083
1831
1574
1311
1045
776
506
236
-32
-298
-562
-823
-1080
-1334
-1583
-1828
-2069
-2305
-2536
-2762
-2980
-3191
-3392
-3584
-3765
-3933
-4088
-4230
-4357
-4470
-4569
-4656
-4730
-4795
-4849
-4894
-4930
-4955
-4970
-4974
-4967
-4949
-4919
-4879
-4829
-4769
-4701
-4623
-4536
-4438
-4328
-4206
-4071
-3923
-3761
-3585
-3396
-3196
-2984
-2763
-2535
-2299
-2059
-1815
-1567
-1317
-1064
-809
-550
-289
-24
242
511
781
1051
1318
1580
1836
2085
2326
2559
2783
3000
3208
3408
3598
3778
3948
4106
4251
4382
4499
4602
4690
4766
4830
4884
4929
4964
4990
5007
5013
5008
4993
4968
4932
4887
4831
4766
4689
4599
4494
4375
4239
4089
3924
3746
3557
3357
3147
2930
2705
2472
2234
1990
1741
1486
1226
962
695
425
155
-113
-380
-645
-907
-1165
-1420
-1670
-1915
-2155
-2390
-2618
-2839
-3053
-3259
-3457
-3645
-3824
-3991
-4146
-4288
-4416
-4529
-4628
-4714
-4787
-4848
-4900
-4942
-4974
-4996
-5008
-5009
-4999
-4978
-4946
-4905
-4854
-4794
-4724
-4644
-4553
-4450
-4333
-4202
-4057
-3899
-3727
-3543
-3348
-3142
-2928
-2707
-2478
-2244
-2004
-1760
-1512
-1261
-1006
-747
-486
-222
 44
313
584
856
1126
1394
1657
1914
2163
2403
2636
2859
3074
3280
3476
3664
3842
4010
4166
4311
4443
4560
4664
4753
4829
4892
4945
4987
5020
5042
5055
5056
5047
5026
4995
4953
4902
4841
4770
4688
4593
4485
4362
4224
4069
3900
3718
3523
3318
3103
2881
2652
2418
2178
1933
1683
1428
1168
903
636
365
 94
-176
-446
-713
-978
-1238
-1495
-1747
-1993
-2234
-2469
-2698
-2919
-3133
-3338
-3534
-3719
-3892
-4053
-4201
-4335
-4455
-4561
-4654
-4734
-4803
-4861
-4909
-4948
-4976
-4995
-5002
-4998
-4982
-4956
-4918
-4870
-4812
-4745
-4668
-4580
-4480
-4368
-4243
-4105
-3954
-3790
-3615
-3430
-3234
-3030
-2817
-2596
-2368
-2133
-1893
-1648
-1399
-1146
-890
-631
-369
-104
162
432
702
972
1240
1505
1765
2018
2264
2502
2730
2948
3157
3355
3542
3720
3887
4045
4191
4325
4447
4556
4652
4735
4806
4866
4916
4956
4986
5006
5015
5013
5000
4975
4940
4895
4840
4775
4701
4617
4520
4411
4286
4147
3992
3822
3638
3442
3235
3018
2793
2561
2323
2080
1832
1578
1320
1057
791
522
250
-21
-293
-563
-830
-1093
-1352
-1604
-1849
-2088
-2321
-2547
-2766
-2979
-3186
-3386
-3578
-3761
-3934
-4095
-4243
-4377
-4496
-4600
-4690
-4767
-4831
-4885
-4929
-4963
-4987
-5002
-5005
-4999
-4981
-4953
-4914
-4866
-4809
-4741
-4663
-4573
-4469
-4353
-4221
-4076
-3917
-3746
-3563
-3370
-3168
-2958
-2741
-2516
-2286
-2049
-1808
-1561
-1309
-1053
-793
-531
-265
  2
270
539
808
1075
1340
1600
1855
2104
2346
2582
2810
3030
3242
3444
3637
3819
3989
4147
4290
4419
4533
4632
4717
4791
4854
4907
4951
4987
5013
5028
5033
5028
5011
4984
4947
4900
4844
4777
4699
4608
4505
4386
4254
4108
3948
3777
3595
3403
3202
2991
2771
2542
2305
2060
1807
1547
1282
1012
741
468
196
-74
-343
-610
-875
-1136
-1393
-1646
-1894
-2136
-2372
-2601
-2822
-3036
-3240
-3436
-3623
-3799
-3965
-4119
-4259
-4387
-4500
-4599
-4685
-4758
-4821
-4874
-4917
-4950
-4973
-4986
-4988
-4978
-4957
-4926
-4884
-4833
-4772
-4701
-4620
-4528
-4423
-4305
-4175
-4032
-3876
-3709
-3530
-3342
-3144
-2936
-2719
-2493
-2257
-2013
-1762
-1505
-1242
-976
-707
-436
-165
106
377
647
916
1182
1444
1702
1953
2198
2435
2664
2884
3096
3299
3492
3675
3849
4013
4165
4305
4431
4544
4643
4729
4802
4865
4918
4961
4994
5018
5031
5033
5024
5004
4973
4932
4882
4822
4750
4668
4572
4461
4336
4195
4040
3872
3693
3503
3303
3096
2880
2657
2428
2191
1947
1696
1438
1174
904
632
358
 84
-187
-455
-719
-979
-1234
-1485
-1730
-1972
-2208
-2440
-2666
-2887
-3100
-3305
-3500
-3685
-3859
-4021
-4170
-4306
-4428
-4537
-4632
-4715
-4787
-4847
-4898
-4938
-4968
-4988
-4996
-4993
-4978
-4952
-4915
-4867
-4810
-4743
-4666
-4579
-4480
-4370
-4246
-4110
-3962
-3801
-3628
-3444
-3250
-3045
-2831
-2608
-2377
-2140
-1897
-1649
-1397
-1141
-882
-621
-357
-91
175
443
712
979
1245
1507
1763
2013
2255
2489
2715
2934
3144
3347
3542
3729
3906
4072
4225
4363
4486
4592
4683
4760
4824
4877
4920
4954
4979
4994
4999
4994
4978
4951
4915
4869
4814
4750
4676
4593
4498
4390
4267
4130
3978
3811
3630
3436
3230
3015
2790
2557
2316
2070
1818
1560
1297
1031
763
493
224
-43
-309
-572
-833
-1090
-1344
-1595
-1842
-2084
-2322
-2555
-2781
-3000
-3211
-3413
-3604
-3784
-3952
-4107
-4249
-4376
-4489
-4589
-4676
-4751
-4815
-4870
-4916
-4952
-4978
-4995
-5000
-4994
-4978
-4950
-4913
-4866
-4809
-4742
-4664
-4575
-4472
-4356
-4225
-4081
-3923
-3752
-3570
-3378
-3177
-2967
-2750
-2526
-2295
-2058
-1816
-1568
-1315
-1057
-796
-531
-264
  5
275
547
818
1087
1353
1615
1871
2120
2362
2596
2821
3038
3245
3443
3630
3808
3976
4133
4278
4410
4528
4633
4724
4803
4870
4926
4972
5009
5036
5053
5059
5055
5040
5014
4978
4932
4876
4811
4734
4645
4541
4423
4289
4139
3974
3794
3603
3399
3187
2965
2737
2502
2262
2017
1767
1512
1252
987
720
450
179
-91
-361
-629
-895
-1156
-1414
-1666
-1912
-2151
-2385
-2611
-2830
-3042
-3247
-3443
-3632
-3810
-3978
-4135
-4278
-4406
-4520
-4618
-4703
-4775
-4835
-4885
-4926
-4956
-4976
-4986
-4985
-4972
-4949
-4915
-4871
-4818
-4755
-4683
-4601
-4508
-4402
-4284
-4153
-4008
-3851
-3682
-3502
-3312
-3111
-2902
-2683
-2456
-2221
-1978
-1728
-1472
-1212
-948
-682
-414
-146
121
389
655
921
1184
1445
1702
1954
2202
2444
2679
2905
3122
3328
3524
3707
3879
4039
4186
4320
4441
4549
4644
4727
4799
4861
4913
4957
4990
5014
5027
5029
5020
5000
4969
4929
4878
4817
4746
4663
4567
4457
4331
4191
4037
3870
3691
3501
3301
3092
2874
2648
2415
2176
1931
1679
1422
1160
893
624
353
 81
-188
-457
-724
-987
-1246
-1501
-1751
-1994
-2231
-2461
-2684
-2900
-3109
-3310
-3503
-3688
-3864
-4030
-4185
-4326
-4453
-4565
-4662
-4744
-4814
-4871
-4918
-4955
-4982
-4998
-5004
-4999
-4983
-4956
-4918
-4871
-4814
-4748
-4672
-4585
-4487
-4375
-4250
-4110
-3956
-3789
-3609
-3418
-3217
-3006
-2787
-2560
-2327
-2088
-1844
-1596
-1344
-1090
-833
-574
-313
-52
210
473
737
999
1261
1520
1776
2027
2273
2513
2745
2970
3185
3391
3588
3773
3949
4112
4262
4399
4521
4628
4720
4799
4866
4922
4968
5005
5032
5049
5055
5051
5036
5010
4974
4928
4873
4809
4734
4648
4548
4434
4303
4156
3994
3818
3629
3431
3224
3011
2793
2568
2339
2102
1859
1609
1350
1085
813
538
261
-15
-290
-561
-827
-1088
-1342
-1590
-1832
-2068
-2300
-2526
-2748
-2964
-3174
-3377
-3571
-3755
-3927
-4087
-4234
-4366
-4483
-4586
-4676
-4753
-4819
-4874
-4919
-4955
-4982
-4998
-5004
-4999
-4983
-4957
-4920
-4873
-4817
-4751
-4673
-4583
-4479
-4361
-4227
-4078
-3914
-3737
-3548
-3350
-3143
-2929
-2709
-2484
-2255
-2022
-1785
-1544
-1298
-1049
-795
-538
-276
-12
253
521
788
1055
1319
1579
1834
2083
2327
2563
2793
3014
3227
3430
3624
3806
3977
4136
4281
4413
4530
4633
4722
4799
4863
4918
4962
4997
5023
5039
5044
5038
5021
4994
4956
4908
4851
4783
4703
4610
4503
4380
4241
4085
3915
3731
3536
3331
3118
2898
2672
2440
2203
1961
1714
1461
1203
941
674
406
137
-130
-397
-662
-924
-1182
-1436
-1687
-1933
-2173
-2409
-2638
-2861
-3076
-3283
-3481
-3670
-3848
-4016
-4171
-4312
-4440
-4553
-4652
-4737
-4810
-4871
-4922
-4963
-4993
-5014
-5024
-5022
-5009
-4985
-4950
-4906
-4851
-4787
-4713
-4628
-4532
-4422
-4299
-4163
-4012
-3849
-3675
-3490
-3295
-3093
-2883
-2666
-2443
-2213
-1978
-1736
-1489
-1236
-979
-717
-451
-182
 88
361
633
904
1173
1437
1697
1950
2197
2436
2668
2892
3107
3313
3509
3696
3873
4039
4192
4333
4460
4573
4671
4756
4829
4891
4943
4985
5018
5041
5053
5055
5045
5024
4993
4952
4901
4841
4769
4687
4592
4482
4357
4217
4062
3893
3712
3520
3318
3108
2889
2664
2432
2193
1948
1696
1437
1174
906
635
363
 92
-177
-444
-708
-967
-1223
-1475
-1723
-1967
-2206
-2440
-2668
-2889
-3103
-3309
-3504
-3689
-3863
-4024
-4173
-4307
-4428
-4535
-4629
-4710
-4781
-4840
-4890
-4931
-4961
-4982
-4991
-4990
-4977
-4953
-4918
-4873
-4819
-4754
-4680
-4594
-4497
-4386
-4261
-4122
-3969
-3803
-3624
-3434
-3234
-3024
-2806
-2580
-2348
-2111
-1868
-1621
-1370
-1116
-859
-600
-339
-77
187
452
718
984
1248
1509
1766
2016
2258
2493
2720
2938
3148
3350
3544
3729
3905
4071
4225
4365
4489
4598
4691
4771
4839
4896
4943
4981
5010
5029
5038
5037
5025
5002
4969
4926
4874
4812
4740
4656
4558
4445
4315
4169
4007
3831
3643
3446
3240
3028
2810
2586
2356
2119
1875
1625
1368
1104
837
566
294
 21
-249
-518
-784
-1046
-1304
-1558
-1806
-2049
-2286
-2516
-2740
-2956
-3164
-3363
-3552
-3732
-3900
-4057
-4201
-4333
-4450
-4555
-4646
-4724
-4792
-4848
-4895
-4931
-4958
-4975
-4981
-4975
-4958
-4931
-4892
-4844
-4786
-4719
-4643
-4555
-4457
-4345
-4220
-4081
-3928
-3761
-3582
-3391
-3189
-2978
-2759
-2532
-2301
-2064
-1823
-1579
-1331
-1078
-823
-563
-299
-32
236
508
780
1051
1319
1580
1835
2082
2320
2551
2774
2989
3197
3397
3589
3771
3944
4105
4254
4389
4509
4615
4706
4784
4849
4904
4948
4982
5007
5022
5026
5020
5002
4975
4937
4889
4832
4765
4687
4596
4492
4372
4236
4083
3915
3732
3537
3331
3117
2895
2667
2435
2200
1960
1716
1468
1215
956
693
426
157
-112
-381
-649
-914
-1175
-1431
-1682
-1926
-2164
-2396
-2621
-2840
-3053
-3258
-3455
-3643
-3821
-3987
-4139
-4278
-4403
-4513
-4610
-4694
-4767
-4830
-4884
-4928
-4963
-4988
-5002
-5006
-4998
-4979
-4950
-4910
-4860
-4801
-4732
-4652
-4560
-4456
-4339
-4208
-4063
-3905
-3734
-3551
-3357
-3153
-2940
-2718
-2490
-2255
-2015
-1769
-1519
-1265
-1008
-746
-481
-214
 55
327
599
870
1138
1402
1659
1908
2149
2382
2607
2824
3034
3238
3434
3623
3803
3973
4131
4276
4407
4523
4623
4710
4784
4846
4899
4942
4976
4999
5012
5015
5006
4986
4956
4915
4865
4804
4734
4652
4557
4449
4324
4184
4029
3859
3677
3484
3281
3071
2854
2630
2401
2166
1925
1679
1427
1170
908
642
374
104
-165
-435
-702
-966
-1227
-1482
-1732
-1977
-2215
-2447
-2673
-2893
-3106
-3312
-3509
-3697
-3875
-4040
-4192
-4330
-4453
-4560
-4654
-4735
-4804
-4863
-4912
-4952
-4983
-5004
-5014
-5013
-5002
-4980
-4947
-4904
-4852
-4790
-4717
-4634
-4538
-4428
-4305
-4167
-4016
-3852
-3677
-3490
-3294
-3088
-2873
-2650
-2418
-2179
-1934
-1683
-1427
-1168
-905
-640
-373
-106
162
432
701
970
1238
1503
1764
2020
2270
2511
2744
2966
3176
3376
3564
3741
3907
4062
4207
4339
4459
4566
4659
4741
4810
4870
4919
4959
4990
5010
5019
5018
5006
4982
4948
4905
4851
4789
4717
4634
4540
4433
4313
4178
4028
3864
3686
3496
3293
3080
2857
2625
2385
2138
1885
1627
1364
1098
830
560
290
 21
-246
-512
-775
-1037
-1295
-1549
-1800
-2045
-2285
-2518
-2745
-2963
-3173
-3374
-3566
-3747
-3918
-4077
-4223
-4356
-4475
-4580
-4671
-4749
-4815
-4870
-4915
-4949
-4974
-4989
-4993
-4986
-4968
-4939
-4900
-4851
-4793
-4726
-4649
-4562
-4463
-4352
-4228
-4090
-3938
-3775
-3599
-3413
-3218
-3014
-2803
-2584
-2358
-2126
-1888
-1643
-1393
-1137
-877
-614
-348
-80
188
457
725
992
1256
1517
1773
2025
2270
2509
2741
2965
3181
3387
3584
3771
3946
4108
4258
4392
4511
4615
4705
4782
4848
4903
4950
4988
5016
5035
5044
5042
5030
5007
4974
4931
4878
4814
4738
4649
4545
4425
4289
4137
3971
3791
3601
3402
3195
2980
2758
2530
2295
2053
1804
1548
1286
1018
747
474
201
-70
-340
-607
-870
-1129
-1385
-1635
-1881
-2122
-2358
-2587
-2810
-3026
-3233
-3431
-3620
-3797
-3963
-4115
-4254
-4378
-4488
-4585
-4670
-4743
-4807
-4860
-4904
-4939
-4963
-4977
-4980
-4971
-4951
-4921
-4880
-4829
-4769
-4698
-4617
-4524
-4418
-4299
-4166
-4020
-3860
-3688
-3505
-3311
-3109
-2897
-2678
-2453
-2221
-1983
-1740
-1493
-1241
-985
-726
-463
-198
 67
335
604
871
1136
1398
1656
1908
2155
2396
2630
2857
3075
3285
3486
3677
3857
4025
4181
4323
4451
4564
4663
4749
4822
4884
4936
4979
5012
5034
5047
5048
5039
5018
4986
4945
4893
4832
4762
4680
4588
4483
4365
4233
4088
3930
3759
3576
3381
3175
2959
2733
2499
2258
2010
1757
1499
1236
970
701
430
159
-109
-377
-643
-905
-1164
-1418
-1668
-1912
-2152
-2386
-2615
-2837
-3052
-3260
-3460
-3650
-3829
-3995
-4148
-4286
-4409
-4518
-4612
-4695
-4765
-4826
-4877
-4920
-4952
-4975
-4988
-4989
-4979
-4958
-4927
-4885
-4833
-4771
-4700
-4617
-4522
-4414
-4293
-4157
-4007
-3844
-3669
-3482
-3286
-3081
-2868
-2648
-2422
-2189
-1951
-1708
-1460
-1208
-950
-689
-424
-156
115
388
662
935
1206
1472
1732
1984
2228
2464
2692
2911
3122
3325
3520
3705
3881
4045
4198
4336
4461
4570
4666
4749
4819
4879
4929
4970
5001
5022
5032
5032
5020
4998
4965
4922
4870
4807
4735
4651
4554
4444
4318
4176
4020
3850
3667
3473
3269
3056
2835
2608
2375
2136
1891
1640
1383
1120
851
578
301
 22
-257
-536
-813
-1086
-1354
-1615
-1868
-2113
-2348
-2575
-2792
-3002
-3203
-3396
-3580
-3756
-3923
-4078
-4222
-4354
-4471
-4576
-4667
-4745
-4812
-4869
-4916
-4952
-4980
-4996
-5002
-4997
-4981
-4953
-4915
-4867
-4809
-4742
-4664
-4576
-4477
-4365
-4239
-4100
-3948
-3783
-3605
-3417
-3217
-3008
-2789
-2562
-2327
-2086
-1840
-1591
-1338
-1084
-829
-573
-316
-58
200
461
724
988
1252
1514
1774
2030
2279
2522
2756
2980
3194
3396
3587
3767
3936
4093
4239
4373
4493
4600
4694
4776
4846
4905
4954
4994
5024
5044
5053
5052
5039
5016
4982
4938
4885
4821
4745
4657
4554
4435
4299
4148
3981
3801
3609
3407
3198
2981
2758
2530
2296
2057
1813
1563
1308
1049
786
520
252
-15
-284
-552
-818
-1080
-1338
-1591
-1837
-2077
-2311
-2537
-2757
-2970
-3177
-3377
-3569
-3754
-3929
-4092
-4243
-4380
-4502
-4607
-4698
-4775
-4839
-4892
-4935
-4968
-4992
-5005
-5008
-5000
-4981
-4952
-4913
-4865
-4807
-4739
-4661
-4571
-4469
-4352
-4221
-4074
-3914
-3740
-3554
-3356
-3150
-2935
-2712
-2484
-2250
-2012
-1769
-1521
-1270
-1015
-757
-496
-233
 31
298
565
832
1098
1362
1623
1879
2129
2374
2610
2839
3059
3269
3469
3658
3836
4001
4154
4293
4418
4529
4626
4711
4785
4849
4904
4949
4985
5012
5028
5033
5026
5009
4981
4943
4895
4836
4768
4688
4596
4490
4370
4236
4087
3926
3753
3569
3375
3171
2957
2734
2501
2260
2011
1755
1492
1224
953
682
411
142
-122
-383
-641
-895
-1146
-1395
-1641
-1886
-2128
-2368
-2604
-2834
-3057
-3272
-3476
-3669
-3849
-4016
-4168
-4305
-4428
-4536
-4631
-4712
-4782
-4841
-4890
-4930
-4960
-4979
-4989
-4987
-4974
-4950
-4916
-4872
-4819
-4757
-4685
-4603
-4511
-4406
-4289
-4157
-4012
-3854
-3682
-3498
-3303
-3098
-2885
-2664
-2437
-2204
-1966
-1722
-1473
-1218
-959
-694
-425
-153
120
396
671
944
1214
1478
1735
1984
2226
2460
2686
2904
3116
3319
3515
3702
3879
4045
4198
4337
4462
4573
4669
4752
4823
4884
4936
4978
5011
5034
5046
5047
5037
5015
4983
4941
4888
4825
4752
4666
4567
4453
4323
4179
4020
3848
3665
3472
3270
3059
2841
2615
2383
2144
1900
1650
1396
1137
875
610
343
 75
-193
-462
-730
-997
-1260
-1520
-1775
-2022
-2262
-2493
-2716
-2929
-3133
-3329
-3517
-3696
-3865
-4024
-4172
-4307
-4429
-4538
-4632
-4714
-4783
-4842
-4891
-4930
-4959
-4977
-4985
-4982
-4967
-4942
-4906
-4859
-4804
-4738
-4662
-4575
-4476
-4363
-4236
-4095
-3940
-3773
-3595
-3408
-3213
-3010
-2799
-2582
-2357
-2125
-1887
-1641
-1390
-1134
-874
-612
-348
-83
181
447
712
978
1242
1505
1766
2023
2276
2522
2759
2987
3202
3405
3595
3773
3938
4093
4236
4368
4487
4594
4689
4771
4841
4901
4950
4989
5018
5037
5045
5042
5027
5001
4965
4919
4863
4798
4724
4638
4540
4428
4300
4156
3996
3819
3628
3424
3209
2986
2756
2521
2282
2041
1796
1548
1297
1042
783
521
256
-11
-279
-548
-815
-1081
-1344
-1602
-1856
-2105
-2347
-2582
-2811
-3031
-3242
-3443
-3634
-3812
-3978
-4130
-4269
-4393
-4504
-4601
-4687
-4762
-4827
-4882
-4929
-4965
-4992
-5008
-5013
-5007
-4990
-4961
-4922
-4873
-4814
-4745
-4666
-4575
-4472
-4356
-4228
-4087
-3935
-3771
-3597
-3411
-3216
-3010
-2793
-2566
-2330
-2086
-1834
-1577
-1317
-1054
-789
-525
-260
  2
265
527
788
1048
1307
1563
1816
2065
2310
2548
2779
3002
3217
3423
3618
3803
3977
4139
4287
4421
4541
4645
4736
4813
4878
4932
4976
5011
5036
5051
5056
5051
5035
5008
4972
4925
4869
4803
4726
4637
4533
4413
4279
4128
3963
3784
3593
3391
3180
2961
2733
2499
2258
2011
1758
1501
1240
975
709
443
176
-89
-354
-618
-880
-1139
-1394
-1647
-1894
-2137
-2375
-2607
-2832
-3050
-3260
-3462
-3653
-3833
-4001
-4155
-4294
-4419
-4528
-4622
-4704
-4773
-4831
-4880
-4919
-4948
-4967
-4976
-4973
-4960
-4936
-4901
-4857
-4803
-4740
-4668
-4586
-4493
-4388
-4270
-4139
-3995
-3837
-3667
-3485
-3293
-3091
-2880
-2661
-2436
-2204
-1966
-1723
-1475
-1223
-966
-705
-441
-174
 93
363
634
903
1171
1435
1694
1947
2194
2434
2666
2890
3105
3312
3509
3697
3876
4044
4200
4343
4473
4588
4688
4774
4848
4910
4962
5005
5037
5060
5072
5073
5063
5043
5012
4971
4920
4860
4791
4711
4619
4513
4392
4256
4103
3936
3753
3558
3352
3136
2912
2681
2444
2203
1956
1705
1450
1192
930
665
398
130
-136
-403
-668
-931
-1190
-1446
-1697
-1944
-2185
-2420
-2649
-2871
-3085
-3291
-3487
-3673
-3848
-4011
-4161
-4297
-4420
-4529
-4625
-4708
-4780
-4841
-4892
-4934
-4965
-4986
-4996
-4994
-4981
-4957
-4922
-4876
-4821
-4756
-4681
-4596
-4500
-4392
-4271
-4135
-3987
-3825
-3650
-3464
-3268
-3062
-2848
-2627
-2399
-2165
-1925
-1680
-1430
-1176
-918
-657
-392
-124
145
415
686
954
1219
1479
1734
1981
2221
2455
2680
2898
3108
3310
3505
3691
3869
4036
4192
4334
4461
4573
4669
4750
4819
4877
4924
4961
4989
5007
5014
5011
4996
4971
4936
4890
4835
4771
4697
4612
4515
4405
4281
4142
3989
3822
3640
3446
3240
3022
2796
2561
2321
2075
1826
1572
1316
1056
794
529
263
 -3
-271
-538
-803
-1067
-1327
-1582
-1832
-2076
-2314
-2545
-2769
-2987
-3196
-3398
-3591
-3774
-3945
-4103
-4248
-4377
-4492
-4592
-4678
-4753
-4817
-4872
-4917
-4953
-4980
-4997
-5003
-4997
-4981
-4954
-4916
-4868
-4811
-4744
-4667
-4578
-4477
-4363
-4235
-4093
-3938
-3770
-3592
-3404
-3206
-3000
-2786
-2564
-2334
-2098
-1855
-1606
-1351
-1093
-831
-567
-301
-34
232
500
767
1034
1298
1560
1817
2069
2314
2552
2781
3000
3210
3410
3600
3779
3947
4103
4248
4380
4498
4603
4695
4774
4842
4899
4947
4985
5014
5033
5042
5040
5027
5003
4970
4926
4873
4809
4734
4646
4544
4426
4294
4146
3985
3810
3625
3429
3223
3008
2786
2555
2316
2070
1817
1558
1294
1026
756
484
212
-59
-329
-597
-863
-1126
-1385
-1639
-1887
-2130
-2365
-2594
-2815
-3027
-3232
-3428
-3616
-3794
-3962
-4119
-4265
-4397
-4515
-4620
-4710
-4787
-4853
-4907
-4950
-4984
-5008
-5021
-5023
-5014
-4994
-4963
-4922
-4872
-4812
-4742
-4663
-4572
-4470
-4356
-4228
-4088
-3935
-3769
-3591
-3401
-3200
-2988
-2766
-2535
-2295
-2048
-1796
-1539
-1278
-1016
-753
-490
-227
 35
299
562
826
1089
1351
1611
1867
2118
2364
2602
2832
3052
3262
3462
3651
3830
3997
4153
4297
4428
4545
4647
4736
4811
4874
4927
4969
5001
5024
5036
5038
5029
5009
4979
4938
4888
4828
4758
4677
4583
4476
4353
4216
4063
3896
3717
3526
3325
3116
2900
2677
2447
2212
1971
1724
1470
1210
944
674
400
126
-146
-418
-686
-950
-1210
-1464
-1713
-1956
-2194
-2425
-2650
-2869
-3080
-3285
-3480
-3667
-3843
-4007
-4159
-4297
-4421
-4531
-4628
-4712
-4784
-4846
-4898
-4941
-4973
-4995
-5006
-5006
-4995
-4972
-4938
-4894
-4840
-4776
-4703
-4619
-4524
-4417
-4297
-4163
-4016
-3856
-3684
-3500
-3306
-3102
-2891
-2671
-2445
-2213
-1976
-1733
-1484
-1231
-973
-711
-445
-176
 94
367
640
911
1179
1442
1699
1949
2191
2426
2653
2874
3088
3294
3493
3683
3864
4035
4193
4338
4468
4583
4682
4768
4841
4902
4953
4995
5027
5048
5060
5060
5049
5028
4996
4954
4902
4841
4769
4686
4590
4479
4353
4211
4054
3884
3700
3506
3303
3092
2874
2649
2419
2183
1939
1689
1433
1169
901
628
353
 77
-196
-468
-737
-1001
-1260
-1513
-1761
-2004
-2241
-2473
-2700
-2920
-3133
-3338
-3533
-3718
-3890
-4050
-4196
-4328
-4445
-4548
-4639
-4717
-4784
-4841
-4888
-4926
-4955
-4974
-4983
-4980
-4966
-4942
-4907
-4862
-4807
-4743
-4669
-4585
-4489
-4380
-4258
-4121
-3970
-3805
-3627
-3438
-3239
-3031
-2815
-2592
-2363
-2129
-1889
-1644
-1394
-1140
-881
-620
-356
-90
177
445
713
980
1244
1504
1758
2006
2247
2481
2708
2927
3139
3341
3533
3714
3883
4041
4186
4319
4439
4546
4640
4722
4793
4854
4906
4948
4980
5002
5014
5014
5003
4981
4948
4905
4852
4789
4716
4631
4533
4421
4293
4151
3993
3822
3638
3442
3237
3022
2800
2571
2336
2096
1850
1599
1342
1081
816
548
279
  8
-261
-530
-795
-1058
-1315
-1568
-1814
-2055
-2289
-2517
-2738
-2953
-3161
-3361
-3553
-3735
-3906
-4064
-4209
-4339
-4455
-4556
-4643
-4719
-4783
-4838
-4883
-4918
-4945
-4960
-4965
-4960
-4943
-4915
-4877
-4829
-4773
-4707
-4631
-4545
-4447
-4337
-4213
-4075
-3923
-3758
-3581
-3393
-3194
-2985
-2768
-2543
-2310
-2071
-1825
-1575
-1319
-1060
-798
-533
-265
  3
273
543
814
1083
1349
1611
1868
2118
2360
2595
2820
3038
3245
3444
3632
3811
3980
4137
4283
4415
4532
4636
4725
4800
4863
4916
4958
4991
5014
5027
5031
5023
5005
4977
4939
4892
4835
4768
4691
4602
4499
4381
4248
4099
3935
3756
3566
3364
3152
2931
2703
2468
2229
1984
1735
1482
1225
964
699
432
162
-108
-379
-649
-918
-1183
-1444
-1700
-1950
-2192
-2427
-2653
-2871
-3081
-3282
-3474
-3657
-3830
-3993
-4144
-4281
-4405
-4516
-4612
-4696
-4769
-4831
-4883
-4926
-4959
-4982
-4995
-4996
-4986
-4966
-4934
-4893
-4842
-4781
-4711
-4631
-4538
-4434
-4316
-4184
-4038
-3879
-3708
-3525
-3332
-3129
-2918
-2700
-2474
-2243
-2005
-1761
-1513
-1259
-1002
-741
-476
-210
 57
326
596
866
1134
1399
1660
1917
2167
2411
2647
2874
3092
3300
3498
3685
3861
4025
4177
4315
4439
4549
4646
4729
4802
4864
4917
4961
4996
5021
5035
5039
5032
5015
4986
4948
4900
4843
4776
4697
4607
4503
4384
4250
4100
3936
3757
3566
3363
3150
2928
2698
2462
2220
1972
1720
1463
1203
938
670
400
129
-142
-412
-681
-947
-1209
-1465
-1716
-1961
-2200
-2431
-2657
-2876
-3088
-3293
-3491
-3680
-3858
-4026
-4180
-4319
-4443
-4552
-4646
-4726
-4793
-4850
-4897
-4934
-4962
-4979
-4987
-4983
-4968
-4943
-4907
-4862
-4807
-4743
-4670
-4586
-4491
-4383
-4261
-4126
-3976
-3813
-3637
-3451
-3255
-3050
-2839
-2620
-2394
-2162
-1924
-1681
-1431
-1176
-916
-653
-386
-117
152
422
693
961
1227
1488
1745
1995
2238
2473
2701
2921
3133
3336
3531
3717
3894
4060
4214
4356
4483
4596
4694
4778
4850
4912
4963
5004
5036
5058
5070
5071
5060
5039
5006
4964
4911
4849
4775
4690
4592
4480
4353
4211
4055
3885
3703
3511
3307
3094
2873
2643
2406
2162
1912
1657
1396
1132
865
597
328
 61
-205
-470
-732
-991
-1247
-1499
-1746
-1989
-2227
-2460
-2686
-2906
-3118
-3321
-3515
-3699
-3871
-4031
-4177
-4309
-4428
-4532
-4622
-4700
-4766
-4822
-4869
-4906
-4933
-4950
-4958
-4954
-4939
-4913
-4877
-4831
-4776
-4711
-4637
-4553
-4457
-4349
-4226
-4090
-3939
-3775
-3597
-3407
-3207
-2997
-2778
-2552
-2318
-2077
-1831
-1581
-1326
-1068
-808
-546
-283
-20
244
509
774
1038
1301
1561
1817
2067
2311
2548
2775
2994
3202
3400
3587
3764
3931
4087
4231
4363
4482
4588
4680
4759
4827
4885
4932
4970
4999
5017
5025
5022
5008
4983
4948
4903
4849
4786
4712
4627
4529
4417
4290
4147
3987
3813
3626
3426
3215
2995
2767
2532
2291
2046
1796
1542
1286
1026
765
502
239
-22
-285
-546
-807
-1066
-1324
-1579
-1831
-2079
-2322
-2560
-2790
-3013
-3226
-3429
-3619
-3798
-3964
-4116
-4254
-4378
-4489
-4587
-4672
-4747
-4812
-4867
-4912
-4948
-4974
-4990
-4994
-4988
-4970
-4941
-4903
-4854
-4796
-4728
-4649
-4559
-4455
-4338
-4207
-4061
-3902
-3730
-3547
-3353
-3150
-2939
-2720
-2493
-2260
-2021
-1776
-1526
-1271
-1012
-751
-487
-222
 43
309
575
839
1102
1362
1619
1871
2119
2360
2595
2822
3041
3251
3452
3643
3823
3991
4147
4290
4418
4532
4630
4715
4788
4850
4901
4943
4976
5000
5013
5015
5007
4988
4959
4920
4872
4814
4747
4669
4579
4477
4360
4229
4083
3922
3747
3558
3357
3145
2922
2692
2454
2210
1961
1709
1453
1193
930
664
397
129
-139
-407
-673
-938
-1199
-1457
-1711
-1959
-2201
-2437
-2665
-2886
-3099
-3303
-3498
-3684
-3859
-4023
-4176
-4315
-4441
-4553
-4652
-4737
-4811
-4874
-4926
-4969
-5002
-5024
-5035
-5036
-5024
-5001
-4968
-4924
-4869
-4805
-4731
-4646
-4549
-4439
-4316
-4179
-4030
-3868
-3695
-3513
-3320
-3119
-2910
-2693
-2467
-2235
-1995
-1750
-1499
-1243
-983
-720
-455
-188
 80
350
621
891
1159
1424
1683
1936
2181
2418
2648
2869
3082
3287
3482
3669
3847
4014
4170
4313
4442
4557
4657
4743
4817
4879
4931
4973
5004
5026
5037
5037
5025
5002
4968
4925
4871
4807
4734
4650
4553
4443
4319
4179
4024
3855
3672
3478
3273
3059
2838
2610
2376
2136
1890
1637
1379
1114
845
572
296
 20
-253
-525
-793
-1055
-1312
-1561
-1804
-2041
-2272
-2498
-2718
-2934
-3144
-3347
-3544
-3731
-3907
-4071
-4221
-4356
-4476
-4581
-4672
-4750
-4815
-4870
-4916
-4952
-4978
-4995
-5001
-4997
-4982
-4956
-4920
-4874
-4818
-4753
-4679
-4593
-4496
-4385
-4261
-4123
-3972
-3808
-3633
-3446
-3250
-3045
-2832
-2611
-2382
-2146
-1905
-1658
-1406
-1149
-890
-627
-362
-95
172
441
709
976
1239
1498
1752
2000
2242
2477
2707
2929
3145
3353
3552
3742
3921
4087
4240
4377
4498
4602
4692
4768
4833
4887
4932
4968
4996
5014
5021
5019
5005
4981
4946
4902
4848
4784
4710
4624
4525
4413
4285
4144
3988
3819
3637
3444
3240
3025
2802
2570
2330
2084
1832
1574
1312
1045
776
505
233
-37
-306
-573
-837
-1096
-1351
-1602
-1847
-2086
-2321
-2549
-2772
-2988
-3197
-3398
-3590
-3771
-3941
-4098
-4241
-4370
-4485
-4585
-4673
-4749
-4815
-4871
-4917
-4954
-4981
-4998
-5003
-4997
-4981
-4953
-4915
-4867
-4810
-4742
-4663
-4573
-4470
-4354
-4224
-4080
-3923
-3753
-3571
-3379
-3177
-2967
-2749
-2524
-2293
-2057
-1816
-1571
-1323
-1070
-814
-555
-292
-26
241
512
783
1055
1324
1589
1850
2104
2351
2590
2820
3042
3253
3455
3647
3828
3998
4157
4303
4435
4553
4657
4746
4823
4887
4940
4983
5017
5041
5055
5058
5051
5033
5005
4967
4919
4862
4795
4718
4628
4525
4407
4273
4124
3960
3781
3590
3387
3175
2954
2726
2492
2253
2008
1758
1503
1242
978
710
440
170
-98
-366
-630
-892
-1149
-1404
-1654
-1900
-2143
-2380
-2611
-2836
-3053
-3261
-3459
-3646
-3821
-3983
-4133
-4269
-4391
-4501
-4598
-4683
-4757
-4821
-4875
-4920
-4955
-4979
-4993
-4996
-4987
-4967
-4937
-4896
-4846
-4786
-4717
-4637
-4547
-4444
-4329
-4200
-4056
-3899
-3729
-3546
-3352
-3147
-2933
-2711
-2481
-2245
-2004
-1757
-1507
-1253
-995
-735
-472
-208
 57
324
592
859
1124
1387
1646
1899
2146
2386
2619
2844
3061
3270
3470
3661
3841
4011
4169
4314
4444
4559
4659
4746
4820
4882
4934
4977
5010
5033
5046
5048
5039
5019
4988
4947
4896
4836
4765
4683
4589
4480
4357
4219
4066
3899
3719
3529
3329
3121
2906
2684
2456
2222
1981
1733
1478
1217
950
679
406
132
-140
-411
-679
-943
-1203
-1459
-1709
-1954
-2194
-2429
-2657
-2879
-3094
-3301
-3499
-3688
-3865
-4030
-4182
-4320
-4442
-4550
-4644
-4725
-4794
-4852
-4900
-4939
-4968
-4986
-4994
-4991
-4976
-4951
-4914
-4867
-4811
-4745
-4670
-4584
-4487
-4379
-4258
-4123
-3977
-3817
-3646
-3464
-3272
-3070
-2859
-2639
-2411
-2176
-1935
-1687
-1434
-1177
-917
-654
-389
-122
146
415
684
952
1218
1480
1737
1988
2232
2468
2696
2916
3126
3327
3517
3697
3865
4023
4169
4303
4425
4534
4630
4714
4787
4849
4902
4944
4977
5000
5012
5012
5001
4979
4947
4904
4851
4789
4716
4632
4534
4423
4296
4155
3999
3828
3646
3451
3246
3032
2809
2578
2340
2097
1848
1594
1335
1073
808
541
273
  5
-261
-527
-790
-1050
-1306
-1558
-1805
-2046
-2281
-2509
-2730
-2944
-3150
-3349
-3539
-3720
-3890
-4050
-4198
-4333
-4453
-4559
-4652
-4731
-4798
-4853
-4899
-4934
-4960
-4975
-4979
-4973
-4955
-4926
-4886
-4837
-4778
-4710
-4633
-4545
-4445
-4333
-4208
-4069
-3916
-3751
-3574
-3385
-3187
-2979
-2762
-2538
-2306
-2067
-1822
-1572
-1318
-1060
-799
-537
-273
 -8
256
521
785
1049
1310
1567
1821
2070
2312
2549
2778
2999
3212
3415
3607
3790
3961
4121
4269
4403
4523
4629
4720
4799
4866
4921
4967
5003
5029
5045
5051
5046
5030
5003
4966
4919
4862
4797
4721
4635
4537
4425
4298
4157
4002
3832
3649
3455
3249
3034
2810
2579
2341
2097
1847
1592
1333
1069
803
534
266
 -1
-267
-532
-793
-1051
-1306
-1556
-1803
-2045
-2282
-2515
-2741
-2961
-3173
-3375
-3568
-3750
-3919
-4075
-4217
-4345
-4458
-4557
-4644
-4718
-4781
-4835
-4879
-4913
-4937
-4951
-4954
-4945
-4926
-4895
-4854
-4803
-4743
-4672
-4591
-4498
-4393
-4274
-4142
-3997
-3839
-3669
-3488
-3297
-3097
-2889
-2674
-2452
-2223
-1989
-1749
-1504
-1255
-1002
-746
-487
-226
 36
300
565
830
1094
1356
1614
1867
2114
2355
2588
2814
3031
3239
3439
3629
3809
3979
4137
4283
4415
4533
4637
4726
4803
4867
4921
4965
4999
5023
5037
5040
5032
5013
4984
4944
4895
4835
4765
4684
4591
4484
4362
4226
4075
3909
3731
3542
3341
3131
2913
2687
2454
2216
1973
1725
1472
1215
954
690
424
157
-109
-374
-639
-900
-1160
-1416
-1668
-1915
-2158
-2395
-2625
-2848
-3062
-3267
-3462
-3646
-3820
-3982
-4131
-4269
-4393
-4505
-4604
-4691
-4767
-4832
-4887
-4932
-4968
-4994
-5008
-5012
-5004
-4984
-4954
-4913
-4862
-4801
-4730
-4648
-4555
-4449
-4329
-4196
-4049
-3888
-3713
-3526
-3327
-3117
-2897
-2669
-2434
-2193
-1948
-1699
-1447
-1193
-936
-677
-415
-152
113
380
649
918
1185
1448
1707
1958
2202
2439
2667
2888
3101
3306
3502
3690
3869
4037
4192
4335
4462
4575
4673
4757
4828
4889
4939
4980
5011
5033
5045
5045
5035
5014
4982
4940
4889
4828
4757
4675
4581
4474
4353
4217
4066
3900
3721
3530
3327
3113
2890
2658
2418
2172
1921
1664
1403
1140
874
606
339
 71
-196
-462
-727
-991
-1251
-1509
-1762
-2010
-2252
-2487
-2714
-2933
-3143
-3344
-3535
-3716
-3887
-4046
-4194
-4328
-4448
-4555
-4648
-4728
-4797
-4854
-4901
-4938
-4965
-4982
-4989
-4984
-4967
-4940
-4902
-4854
-4797
-4731
-4655
-4569
-4473
-4364
-4243
-4108
-3960
-3798
-3624
-3437
-3239
-3031
-2814
-2589
-2356
-2118
-1874
-1626
-1375
-1121
-864
-604
-343
-80
184
451
719
987
1254
1519
1779
2032
2279
2516
2744
2963
3172
3372
3564
3747
3920
4083
4235
4373
4496
4604
4698
4778
4846
4903
4951
4989
5018
5036
5044
5041
5027
5003
4968
4923
4868
4803
4727
4638
4537
4421
4291
4148
3992
3825
3647
3459
3261
3053
2835
2609
2374
2131
1880
1621
1356
1086
812
538
264
 -8
-277
-544
-807
-1066
-1322
-1573
-1820
-2062
-2299
-2530
-2754
-2970
-3178
-3376
-3565
-3743
-3910
-4065
-4207
-4337
-4453
-4556
-4645
-4723
-4789
-4845
-4890
-4926
-4953
-4968
-4974
-4968
-4950
-4922
-4884
-4835
-4777
-4709
-4632
-4544
-4444
-4330
-4203
-4061
-3904
-3734
-3551
-3356
-3151
-2937
-2715
-2487
-2253
-2015
-1773
-1527
-1278
-1026
-771
-512
-251
 11
277
544
812
1079
1344
1606
1862
2112
2355
2591
2819
3039
3250
3452
3645
3827
3998
4157
4302
4433
4549
4649
4737
4811
4875
4929
4974
5010
5036
5051
5057
5051
5035
5008
4971
4925
4869
4803
4726
4637
4535
4419
4288
4142
3983
3810
3626
3430
3224
3009
2786
2556
2319
2075
1825
1570
1309
1044
775
504
232
-39
-310
-580
-846
-1109
-1367
-1621
-1869
-2112
-2348
-2578
-2801
-3016
-3223
-3421
-3608
-3785
-3950
-4102
-4242
-4367
-4479
-4578
-4665
-4740
-4805
-4860
-4906
-4942
-4968
-4984
-4988
-4981
-4962
-4933
-4892
-4842
-4782
-4711
-4630
-4537
-4432
-4313
-4181
-4036
-3879
-3709
-3527
-3334
-3131
-2918
-2696
-2466
-2230
-1988
-1741
-1491
-1238
-982
-724
-463
-199
 66
335
605
875
1144
1409
1669
1922
2167
2404
2633
2852
3063
3266
3461
3648
3827
3995
4153
4298
4428
4544
4644
4730
4803
4865
4917
4958
4991
5013
5025
5026
5016
4996
4964
4923
4872
4812
4741
4660
4567
4460
4338
4201
4049
3881
3701
3508
3304
3091
2870
2642
2408
2169
1925
1675
1420
1160
896
628
358
 87
-182
-450
-715
-977
-1236
-1490
-1740
-1985
-2225
-2459
-2686
-2907
-3119
-3322
-3515
-3697
-3868
-4026
-4173
-4306
-4426
-4533
-4627
-4710
-4781
-4842
-4893
-4934
-4966
-4987
-4997
-4996
-4983
-4960
-4925
-4881
-4827
-4763
-4689
-4604
-4507
-4397
-4274
-4136
-3984
-3819
-3642
-3453
-3255
-3048
-2834
-2613
-2386
-2153
-1916
-1674
-1427
-1175
-918
-656
-389
-119
153
429
704
978
1248
1511
1767
2014
2253
2485
2709
2926
3136
3339
3535
3721
3899
4065
4219
4360
4486
4596
4692
4773
4842
4899
4946
4983
5011
5028
5036
5032
5018
4992
4956
4910
4855
4790
4715
4630
4534
4425
4302
4165
4014
3849
3670
3479
3276
3063
2840
2609
2370
2124
1872
1615
1353
1088
820
551
282
 14
-251
-515
-778
-1038
-1295
-1549
-1801
-2048
-2290
-2527
-2756
-2978
-3190
-3392
-3582
-3760
-3925
-4076
-4214
-4338
-4449
-4548
-4635
-4711
-4777
-4835
-4883
-4922
-4951
-4970
-4978
-4975
-4960
-4934
-4898
-4852
-4795
-4730
-4654
-4566
-4467
-4354
-4227
-4086
-3931
-3764
-3585
-3395
-3196
-2988
-2772
-2549
-2319
-2083
-1842
-1596
-1346
-1093
-837
-578
-317
-54
209
476
743
1010
1276
1538
1795
2046
2289
2524
2752
2972
3184
3386
3578
3759
3929
4085
4228
4356
4470
4570
4656
4730
4794
4848
4893
4930
4957
4974
4982
4978
4964
4939
4904
4859
4805
4742
4670
4586
4491
4383
4260
4122
3969
3800
3618
3423
3217
3000
2773
2539
2298
2051
1798
1540
1277
1010
742
472
202
-66
-333
-598
-860
-1118
-1373
-1625
-1872
-2115
-2353
-2585
-2811
-3029
-3239
-3439
-3628
-3806
-3972
-4125
-4265
-4391
-4504
-4604
-4691
-4767
-4832
-4887
-4933
-4969
-4995
-5010
-5014
-5007
-4988
-4959
-4919
-4869
-4809
-4740
-4659
-4568
-4464
-4347
-4217
-4074
-3919
-3751
-3572
-3382
-3182
-2971
-2752
-2524
-2288
-2045
-1797
-1544
-1288
-1028
-766
-501
-235
 33
303
574
845
1114
1380
1641
1895
2142
2379
2608
2828
3040
3243
3437
3622
3799
3966
4122
4267
4398
4516
4619
4708
4784
4849
4902
4946
4980
5005
5020
5025
5019
5003
4976
4940
4894
4839
4774
4698
4610
4507
4389
4255
4105
3940
3760
3567
3363
3149
2926
2697
2461
2222
1978
1730
1478
1223
963
700
435
169
-97
-364
-630
-894
-1155
-1413
-1667
-1916
-2159
-2396
-2625
-2848
-3062
-3269
-3466
-3655
-3833
-3999
-4153
-4292
-4417
-4528
-4624
-4707
-4779
-4839
-4890
-4931
-4963
-4985
-4996
-4996
-4985
-4963
-4930
-4887
-4834
-4772
-4701
-4618
-4524
-4418
-4299
-4166
-4020
-3861
-3690
-3507
-3314
-3111
-2898
-2678
-2449
-2213
-1971
-1724
-1472
-1216
-957
-696
-432
-167
 99
367
635
903
1169
1430
1687
1937
2181
2418
2648
2871
3087
3295
3495
3686
3866
4036
4193
4337
4465
4579
4677
4761
4832
4892
4941
4981
5011
5032
5041
5040
5027
5004
4970
4926
4872
4809
4737
4654
4559
4452
4330
4193
4042
3876
3697
3506
3304
3092
2872
2645
2411
2170
1922
1668
1408
1143
872
599
325
 50
-221
-490
-754
-1014
-1269
-1518
-1762
-2001
-2234
-2462
-2684
-2900
-3110
-3311
-3504
-3687
-3859
-4020
-4168
-4302
-4423
-4531
-4626
-4709
-4780
-4841
-4893
-4934
-4966
-4988
-4998
-4997
-4984
-4960
-4925
-4879
-4823
-4757
-4681
-4593
-4493
-4380
-4253
-4112
-3958
-3792
-3615
-3427
-3230
-3024
-2809
-2587
-2358
-2122
-1881
-1634
-1383
-1128
-869
-608
-343
-76
192
463
735
1006
1276
1541
1799
2051
2294
2528
2753
2969
3175
3372
3559
3735
3901
4056
4199
4331
4450
4556
4649
4731
4801
4861
4911
4952
4983
5003
5014
5013
5001
4978
4944
4901
4848
4784
4711
4626
4529
4418
4292
4152
3998
3830
3649
3455
3251
3036
2811
2578
2338
2091
1839
1582
1321
1058
792
526
260
 -5
-271
-535
-798
-1058
-1317
-1572
-1822
-2068
-2308
-2542
-2767
-2985
-3195
-3395
-3586
-3766
-3935
-4091
-4234
-4363
-4478
-4578
-4665
-4740
-4804
-4858
-4903
-4938
-4964
-4979
-4984
-4977
-4960
-4932
-4894
-4847
-4790
-4724
-4649
-4563
-4465
-4354
-4230
-4091
-3938
-3772
-3593
-3403
-3202
-2992
-2773
-2547
-2313
-2072
-1827
-1576
-1322
-1064
-803
-541
-276
-10
257
526
795
1064
1331
1594
1851
2102
2346
2581
2807
3024
3231
3428
3615
3791
3957
4113
4258
4390
4510
4616
4710
4790
4859
4917
4964
5001
5028
5045
5051
5045
5029
5002
4964
4917
4860
4794
4717
4628
4527
4411
4281
4136
3977
3804
3618
3422
3215
3001
2778
2549
2313
2070
1821
1564
1301
1032
759
483
206
-70
-345
-617
-885
-1148
-1405
-1656
-1900
-2138
-2368
-2592
-2808
-3017
-3219
-3413
-3598
-3773
-3938
-4092
-4233
-4360
-4473
-4573
-4660
-4735
-4798
-4851
-4895
-4928
-4951
-4963
-4963
-4952
-4929
-4895
-4850
-4796
-4732
-4658
-4573
-4478
-4371
-4252
-4120
-3976
-3819
-3651
-3471
-3282
-3082
-2873
-2656
-2431
-2198
-1960
-1716
-1468
-1215
-959
-700
-438
-175
 90
357
625
893
1159
1421
1679
1931
2175
2413
2643
2866
3082
3290
3490
3682
3863
4034
4193
4338
4469
4584
4684
4770
4842
4904
4955
4997
5029
5051
5063
5064
5055
5034
5004
4964
4914
4855
4787
4708
4617
4513
4395
4261
4111
3947
3769
3579
3377
3166
2945
2718
2483
2243
1998
1747
1492
1231
966
697
427
157
-112
-380
-646
-909
-1167
-1421
-1671
-1915
-2154
-2387
-2614
-2834
-3046
-3250
-3445
-3630
-3806
-3970
-4122
-4261
-4386
-4497
-4595
-4679
-4751
-4812
-4862
-4903
-4934
-4954
-4964
-4962
-4949
-4924
-4888
-4842
-4786
-4721
-4646
-4560
-4464
-4355
-4234
-4100
-3953
-3793
-3621
-3436
-3241
-3035
-2819
-2595
-2363
-2124
-1880
-1631
-1378
-1121
-862
-600
-337
-72
192
458
724
989
1250
1507
1759
2003
2241
2471
2695
2912
3122
3326
3522
3709
3887
4054
4209
4349
4475
4586
4682
4765
4836
4895
4945
4985
5016
5037
5047
5047
5035
5013
4979
4936
4883
4820
4748
4664
4567
4458
4334
4195
4042
3875
3695
3502
3298
3083
2859
2626
2387
2140
1888
1632
1370
1106
838
570
300
 32
-234
-499
-761
-1020
-1275
-1525
-1771
-2011
-2247
-2477
-2701
-2919
-3130
-3334
-3528
-3713
-3887
-4048
-4197
-4331
-4450
-4555
-4647
-4726
-4794
-4852
-4900
-4939
-4968
-4988
-4997
-4996
-4983
-4960
-4926
-4883
-4830
-4767
-4694
-4610
-4513
-4403
-4278
-4138
-3984
-3816
-3636
-3445
-3244
-3034
-2817
-2592
-2360
-2123
-1880
-1632
-1379
-1122
-861
-598
-332
-66
200
467
732
995
1254
1508
1757
2000
2237
2467
2690
2907
3116
3319
3513
3698
3874
4039
4190
4328
4449
4556
4648
4727
4795
4852
4900
4939
4968
4988
4997
4996
4983
4959
4925
4880
4826
4762
4687
4601
4500
4385
4255
4109
3948
3773
3586
3387
3179
2962
2736
2503
2263
2017
1764
1506
1244
978
711
443
176
-88
-351
-611
-868
-1121
-1372
-1620
-1864
-2105
-2341
-2574
-2800
-3021
-3233
-3436
-3630
-3813
-3984
-4143
-4288
-4419
-4537
-4640
-4729
-4806
-4871
-4925
-4970
-5004
-5028
-5042
-5046
-5038
-5020
-4991
-4952
-4903
-4844
-4776
-4698
-4608
-4506
-4392
-4264
-4121
-3966
-3797
-3616
-3423
-3220
-3007
-2785
-2557
-2322
-2083
-1839
-1591
-1339
-1085
-827
-567
-304
-39
226
493
761
1028
1292
1552
1807
2056
2298
2534
2763
2983
3196
3399
3593
3777
3951
4112
4260
4394
4514
4618
4709
4785
4850
4904
4948
4982
5007
5022
5027
5021
5005
4978
4942
4895
4839
4773
4696
4606
4502
4382
4245
4092
3924
3743
3549
3344
3131
2910
2681
2447
2207
1961
1709
1452
1191
925
657
388
119
-147
-411
-672
-930
-1183
-1434
-1681
-1924
-2163
-2399
-2630
-2855
-3073
-3282
-3482
-3671
-3848
-4013
-4164
-4301
-4425
-4535
-4631
-4716
-4790
-4853
-4906
-4949
-4983
-5006
-5018
-5018
-5007
-4985
-4951
-4907
-4853
-4789
-4716
-4632
-4536
-4428
-4307
-4172
-4023
-3861
-3685
-3499
-3302
-3095
-2881
-2659
-2431
-2197
-1959
-1716
-1469
-1219
-964
-707
-446
-183
 82
348
616
883
1148
1410
1668
1920
2167
2406
2639
2864
3081
3289
3487
3675
3852
4018
4170
4309
4433
4542
4638
4721
4792
4853
4905
4947
4980
5003
5016
5018
5009
4990
4960
4919
4870
4811
4741
4661
4569
4463
4342
4205
4053
3887
3707
3516
3313
3101
2881
2654
2421
2183
1938
1688
1432
1170
904
633
359
 85
-189
-461
-731
-997
-1259
-1514
-1762
-2004
-2238
-2465
-2685
-2898
-3104
-3304
-3496
-3680
-3856
-4021
-4173
-4313
-4437
-4547
-4642
-4723
-4792
-4850
-4897
-4935
-4963
-4980
-4987
-4983
-4968
-4942
-4905
-4859
-4803
-4738
-4663
-4578
-4481
-4371
-4247
-4110
-3959
-3795
-3619
-3433
-3237
-3032
-2820
-2600
-2374
-2141
-1902
-1658
-1408
-1153
-893
-629
-363
-93
176
447
717
985
1250
1510
1765
2013
2255
2490
2719
2940
3154
3360
3558
3745
3922
4087
4239
4376
4498
4606
4698
4778
4847
4905
4953
4993
5023
5043
5053
5052
5040
5018
4985
4942
4889
4826
4752
4667
4569
4457
4331
4189
4034
3866
3686
3495
3294
3083
2862
2634
2397
2154
1905
1650
1391
1128
863
597
329
 62
-204
-471
-736
-1000
-1262
-1520
-1774
-2023
-2265
-2500
-2727
-2946
-3155
-3355
-3546
-3727
-3898
-4057
-4205
-4339
-4459
-4566
-4659
-4739
-4807
-4864
-4911
-4948
-4975
-4992
-4997
-4992
-4976
-4948
-4910
-4863
-4805
-4739
-4663
-4577
-4481
-4373
-4253
-4119
-3973
-3813
-3640
-3455
-3260
-3054
-2840
-2617
-2386
-2149
-1907
-1659
-1406
-1149
-889
-625
-359
-91
177
447
716
984
1249
1510
1766
2015
2258
2494
2723
2943
3154
3356
3547
3729
3899
4059
4206
4340
4462
4569
4663
4744
4814
4872
4920
4959
4988
5006
5013
5010
4995
4969
4932
4885
4829
4763
4686
4599
4499
4385
4256
4112
3954
3781
3595
3398
3191
2975
2752
2521
2284
2041
1792
1538
1278
1013
745
474
202
-69
-339
-608
-873
-1134
-1391
-1642
-1888
-2128
-2362
-2590
-2811
-3025
-3232
-3430
-3620
-3800
-3969
-4126
-4270
-4399
-4514
-4615
-4703
-4779
-4844
-4899
-4944
-4980
-5006
-5021
-5025
-5019
-5001
-4972
-4933
-4885
-4826
-4758
-4678
-4587
-4484
-4366
-4235
-4091
-3933
-3763
-3582
-3390
-3190
-2980
-2762
-2536
-2302
-2062
-1815
-1562
-1305
-1044
-780
-515
-248
 17
283
548
812
1074
1334
1592
1846
2096
2341
2581
2814
3037
3251
3452
3641
3816
3979
4128
4264
4387
4498
4596
4682
4758
4824
4880
4928
4966
4994
5011
5018
5013
4998
4971
4934
4888
4831
4764
4687
4596
4492
4374
4240
4090
3927
3750
3562
3362
3154
2936
2712
2480
2243
1999
1750
1494
1233
968
698
426
153
-118
-389
-656
-921
-1181
-1437
-1687
-1931
-2169
-2400
-2624
-2841
-3050
-3252
-3445
-3630
-3805
-3970
-4123
-4264
-4391
-4504
-4603
-4689
-4763
-4825
-4878
-4920
-4953
-4975
-4988
-4989
-4979
-4958
-4927
-4886
-4835
-4775
-4706
-4626
-4535
-4432
-4316
-4185
-4040
-3880
-3706
-3519
-3321
-3112
-2894
-2670
-2439
-2205
-1966
-1724
-1478
-1228
-974
-716
-453
-187
 81
352
623
894
1161
1423
1679
1927
2167
2400
2626
2845
3057
3263
3461
3652
3833
4004
4163
4308
4438
4553
4652
4736
4808
4868
4919
4959
4990
5012
5023
5023
5012
4991
4959
4917
4865
4804
4733
4651
4557
4449
4326
4189
4036
3869
3689
3497
3295
3084
2864
2636
2401
2158
1908
1652
1390
1123
852
580
307
 36
-231
-496
-758
-1015
-1267
-1516
-1760
-1999
-2234
-2464
-2688
-2906
-3117
-3318
-3511
-3693
-3864
-4024
-4171
-4304
-4424
-4531
-4625
-4707
-4777
-4837
-4887
-4927
-4957
-4978
-4987
-4985
-4971
-4947
-4911
-4865
-4810
-4745
-4671
-4586
-4490
-4383
-4263
-4130
-3984
-3825
-3655
-3473
-3280
-3077
-2865
-2645
-2417
-2182
-1940
-1692
-1438
-1179
-916
-649
-379
-108
164
437
711
982
1251
1516
1777
2031
2278
2519
2751
2974
3188
3391
3583
3764
3933
4090
4234
4366
4484
4589
4681
4760
4827
4884
4932
4970
4998
5017
5025
5023
5010
4986
4951
4907
4854
4791
4717
4632
4534
4421
4293
4149
3990
3817
3631
3435
3229
3015
2794
2567
2333
2093
1847
1595
1338
1075
810
541
272
  3
-264
-531
-794
-1055
-1312
-1566
-1814
-2058
-2297
-2531
-2758
-2978
-3190
-3394
-3588
-3771
-3942
-4100
-4244
-4374
-4488
-4589
-4677
-4753
-4818
-4874
-4920
-4957
-4985
-5002
-5008
-5003
-4987
-4960
-4923
-4876
-4819
-4752
-4674
-4584
-4482
-4365
-4235
-4091
-3934
-3765
-3585
-3396
-3197
-2991
-2776
-2555
-2327
-2092
-1852
-1607
-1357
-1102
-845
-585
-322
-59
205
471
736
1001
1265
1525
1782
2033
2278
2516
2746
2967
3178
3378
3568
3747
3914
4070
4214
4346
4464
4568
4660
4739
4807
4864
4911
4948
4976
4993
4999
4994
4978
4951
4914
4866
4808
4740
4660
4569
4465
4348
4217
4073
3917
3749
3570
3380
3179
2968
2746
2514
2274
2026
1771
1511
1248
982
715
449
183
-81
-345
-607
-869
-1129
-1387
-1641
-1891
-2137
-2376
-2608
-2832
-3049
-3256
-3455
-3643
-3821
-3987
-4140
-4280
-4405
-4516
-4613
-4697
-4770
-4832
-4884
-4928
-4962
-4986
-4999
-5002
-4994
-4974
-4945
-4905
-4856
-4797
-4728
-4649
-4557
-4453
-4336
-4204
-4059
-3901
-3730
-3549
-3359
-3160
-2953
-2739
-2517
-2288
-2052
-1809
-1560
-1304
-1044
-779
-513
-244
 23
291
558
822
1084
1343
1598
1848
2094
2334
2569
2797
3016
3227
3428
3618
3796
3963
4117
4258
4384
4497
4595
4680
4753
4816
4869
4912
4946
4971
4985
4988
4980
4961
4931
4891
4841
4782
4712
4632
4540
4436
4318
4187
4042
3884
3714
3532
3337
3130
2912
2685
2448
2203
1952
1696
1434
1170
902
634
367
100
-163
-426
-685
-943
-1197
-1449
-1697
-1942
-2182
-2416
-2645
-2866
-3080
-3286
-3482
-3668
-3843
-4007
-4158
-4296
-4419
-4529
-4626
-4709
-4782
-4843
-4895
-4937
-4970
-4992
-5003
-5004
-4993
-4971
-4938
-4896
-4844
-4783
-4712
-4631
-4539
-4434
-4317
-4185
-4038
-3878
-3703
-3516
-3317
-3108
-2892
-2668
-2439
-2206
-1968
-1726
-1478
-1226
-968
-705
-436
-164
111
388
665
939
1208
1471
1725
1970
2207
2435
2657
2873
3083
3287
3485
3675
3855
4024
4180
4321
4446
4556
4651
4733
4803
4862
4913
4954
4985
5007
5019
5019
5009
4988
4956
4914
4863
4801
4729
4645
4548
4436
4310
4170
4016
3850
3673
3485
3288
3081
2866
2642
2410
2170
1924
1671
1412
1149
883
615
346
 79
-187
-451
-712
-971
-1227
-1480
-1730
-1975
-2217
-2453
-2684
-2907
-3123
-3330
-3527
-3712
-3885
-4046
-4193
-4325
-4443
-4547
-4637
-4715
-4781
-4836
-4882
-4918
-4945
-4961
-4967
-4962
-4946
-4919
-4881
-4834
-4777
-4711
-4636
-4550
-4454
-4346
-4226
-4092
-3944
-3784
-3610
-3425
-3229
-3022
-2807
-2585
-2355
-2121
-1881
-1637
-1389
-1137
-881
-622
-360
-95
172
442
714
986
1256
1523
1786
2042
2290
2530
2760
2981
3191
3393
3584
3767
3940
4102
4254
4393
4519
4629
4725
4807
4876
4934
4982
5020
5048
5066
5075
5072
5059
5034
5000
4955
4902
4838
4764
4679
4580
4467
4339
4194
4034
3860
3673
3475
3267
3050
2824
2591
2351
2104
1850
1591
1328
1062
795
528
262
 -1
-263
-521
-777
-1030
-1280
-1527
-1771
-2011
-2248
-2481
-2708
-2929
-3143
-3348
-3543
-3728
-3900
-4059
-4205
-4336
-4453
-4556
-4646
-4724
-4791
-4847
-4894
-4932
-4959
-4977
-4984
-4980
-4964
-4938
-4901
-4854
-4797
-4730
-4653
-4566
-4466
-4353
-4227
-4087
-3934
-3767
-3589
-3401
-3203
-2996
-2781
-2559
-2330
-2095
-1854
-1607
-1355
-1098
-837
-572
-304
-34
237
509
781
1050
1316
1577
1831
2078
2318
2550
2775
2992
3202
3403
3595
3778
3950
4112
4261
4396
4517
4623
4715
4793
4860
4916
4961
4998
5024
5041
5046
5042
5026
4999
4963
4916
4860
4793
4715
4625
4521
4402
4269
4121
3959
3785
3599
3403
3196
2981
2756
2523
2282
2034
1779
1519
1255
987
717
447
177
-90
-357
-621
-884
-1143
-1399
-1651
-1898
-2140
-2376
-2605
-2827
-3041
-3246
-3441
-3627
-3803
-3966
-4117
-4255
-4379
-4490
-4587
-4672
-4746
-4810
-4864
-4909
-4944
-4970
-4985
-4990
-4983
-4965
-4936
-4897
-4848
-4789
-4722
-4644
-4556
-4455
-4341
-4212
-4068
-3909
-3737
-3552
-3356
-3150
-2936
-2716
-2489
-2257
-2020
-1778
-1531
-1279
-1023
-762
-497
-229
 40
312
585
856
1126
1391
1651
1905
2152
2392
2624
2848
3064
3271
3468
3656
3834
4001
4156
4298
4427
4540
4640
4725
4799
4861
4913
4956
4990
5013
5026
5028
5019
4999
4968
4927
4877
4816
4746
4665
4572
4466
4345
4210
4060
3895
3718
3529
3328
3117
2896
2667
2431
2189
1940
1687
1429
1167
902
635
368
100
-164
-428
-689
-947
-1202
-1453
-1700
-1943
-2181
-2414
-2642
-2864
-3079
-3285
-3483
-3670
-3846
-4010
-4161
-4298
-4421
-4530
-4626
-4710
-4782
-4845
-4897
-4940
-4973
-4996
-5008
-5009
-4998
-4975
-4942
-4899
-4845
-4782
-4709
-4625
-4530
-4422
-4300
-4165
-4016
-3854
-3679
-3494
-3298
-3094
-2882
-2662
-2436
-2204
-1965
-1721
-1472
-1218
-959
-696
-430
-161
108
381
653
925
1194
1458
1717
1969
2214
2451
2681
2903
3117
3323
3520
3706
3882
4046
4196
4333
4454
4561
4654
4734
4802
4860
4908
4948
4978
4999
5010
5010
5000
4979
4948
4907
4856
4796
4726
4643
4548
4437
4311
4168
4010
3837
3651
3454
3246
3030
2806
2576
2340
2099
1854
1602
1345
1083
816
545
271
 -3
-277
-551
-821
-1087
-1348
-1601
-1847
-2085
-2315
-2537
-2753
-2961
-3164
-3360
-3551
-3735
-3910
-4076
-4229
-4370
-4495
-4605
-4700
-4781
-4850
-4906
-4953
-4989
-5015
-5031
-5036
-5030
-5013
-4986
-4948
-4901
-4844
-4777
-4700
-4611
-4509
-4394
-4264
-4121
-3964
-3794
-3613
-3423
-3223
-3015
-2800
-2578
-2350
-2115
-1875
-1629
-1378
-1122
-863
-601
-337
-72
193
460
726
991
1253
1513
1770
2022
2268
2508
2741
2965
3180
3384
3577
3758
3927
4084
4228
4359
4477
4581
4673
4752
4821
4879
4928
4968
4999
5019
5030
5029
5017
4995
4962
4919
4866
4803
4729
4644
4545
4431
4301
4156
3996
3822
3635
3439
3233
3019
2798
2569
2334
2093
1845
1590
1329
1063
791
517
241
-34
-308
-579
-847
-1110
-1367
-1618
-1862
-2101
-2333
-2560
-2782
-2998
-3207
-3410
-3604
-3789
-3962
-4123
-4270
-4402
-4518
-4620
-4707
-4782
-4845
-4898
-4941
-4975
-4998
-5011
-5013
-5004
-4984
-4954
-4913
-4863
-4804
-4734
-4655
-4564
-4461
-4344
-4215
-4072
-3915
-3746
-3566
-3375
-3174
-2964
-2745
-2519
-2286
-2046
-1800
-1549
-1294
-1036
-775
-513
-249
 14
279
544
808
1072
1333
1592
1846
2096
2340
2577
2806
3025
3233
3431
3617
3792
3957
4110
4251
4381
4498
4601
4692
4771
4839
4896
4944
4982
5010
5028
5036
5033
5019
4993
4957
4912
4856
4791
4716
4629
4528
4412
4280
4131
3965
3785
3591
3385
3170
2947
2718
2483
2244
2001
1753
1502
1246
986
722
456
187
-83
-355
-626
-896
-1162
-1424
-1680
-1928
-2170
-2403
-2629
-2847
-3058
-3260
-3455
-3640
-3815
-3979
-4131
-4268
-4391
-4499
-4594
-4676
-4748
-4809
-4860
-4903
-4937
-4961
-4975
-4978
-4970
-4952
-4923
-4884
-4835
-4777
-4708
-4629
-4537
-4432
-4313
-4179
-4031
-3870
-3696
-3512
-3317
-3114
-2902
-2683
-2455
-2220
-1978
-1729
-1475
-1217
-955
-691
-424
-157
110
378
646
913
1179
1441
1700
1953
2200
2440
2672
2896
3111
3317
3513
3698
3873
4038
4191
4332
4459
4573
4674
4760
4835
4899
4952
4996
5030
5054
5068
5071
5062
5043
5013
4973
4922
4863
4792
4711
4617
4509
4386
4248
4094
3925
3743
3548
3343
3129
2907
2678
2442
2201
1954
1701
1443
1180
913
644
373
101
-169
-439
-707
-971
-1231
-1487
-1737
-1981
-2219
-2450
-2675
-2894
-3105
-3309
-3505
-3691
-3868
-4032
-4184
-4321
-4444
-4552
-4645
-4726
-4794
-4852
-4900
-4937
-4966
-4983
-4990
-4986
-4971
-4945
-4908
-4861
-4804
-4738
-4663
-4577
-4481
-4372
-4251
-4117
-3969
-3808
-3634
-3448
-3251
-3044
-2828
-2604
-2372
-2134
-1891
-1643
-1391
-1135
-876
-615
-351
-84
183
454
726
997
1266
1532
1792
2046
2291
2527
2755
2973
3182
3383
3573
3755
3927
4090
4241
4380
4506
4618
4716
4799
4870
4930
4978
5017
5046
5065
5074
5071
5057
5033
4998
4953
4898
4835
4761
4676
4579
4468
4343
4202
4046
3877
3694
3500
3295
3081
2859
2628
2390
2144
1892
1632
1367
1097
823
549
275
  3
-265
-530
-791
-1047
-1298
-1545
-1787
-2026
-2260
-2489
-2712
-2929
-3137
-3337
-3525
-3703
-3869
-4023
-4164
-4293
-4409
-4513
-4604
-4684
-4752
-4810
-4858
-4896
-4924
-4941
-4948
-4943
-4926
-4899
-4861
-4814
-4756
-4688
-4610
-4520
-4419
-4304
-4177
-4036
-3882
-3716
-3538
-3350
-3152
-2945
-2731
-2511
-2284
-2050
-1811
-1567
-1317
-1061
-800
-535
-266
  5
278
552
825
1095
1360
1619
1870
2113
2349
2578
2801
3017
3227
3429
3624
3808
3983
4145
4293
4427
4546
4650
4739
4815
4879
4933
4977
5012
5038
5053
5059
5053
5037
5010
4973
4926
4869
4802
4723
4632
4527
4407
4273
4124
3961
3785
3599
3402
3195
2980
2757
2525
2286
2040
1786
1527
1263
995
725
453
180
-91
-362
-631
-897
-1160
-1419
-1673
-1921
-2164
-2401
-2631
-2853
-3068
-3274
-3471
-3657
-3832
-3995
-4146
-4282
-4405
-4514
-4610
-4694
-4766
-4828
-4881
-4924
-4958
-4981
-4995
-4998
-4990
-4971
-4941
-4902
-4854
-4796
-4728
-4651
-4561
-4460
-4344
-4214
-4070
-3911
-3737
-3551
-3352
-3143
-2925
-2700
-2468
-2233
-1994
-1752
-1507
-1259
-1009
-755
-497
-235
 29
298
570
844
1117
1389
1657
1918
2172
2417
2652
2877
3091
3296
3490
3674
3848
4012
4163
4301
4426
4537
4634
4718
4792
4855
4910
4955
4991
5018
5033
5038
5032
5015
4987
4949
4901
4843
4773
4692
4597
4487
4363
4224
4071
3906
3729
3542
3345
3137
2921
2695
2462
2221
1973
1719
1460
1196
928
658
387
116
-154
-422
-687
-950
-1208
-1461
-1709
-1952
-2189
-2419
-2644
-2862
-3073
-3277
-3473
-3660
-3836
-4002
-4154
-4292
-4416
-4525
-4620
-4702
-4772
-4831
-4880
-4920
-4950
-4969
-4979
-4977
-4964
-4940
-4906
-4861
-4808
-4745
-4672
-4590
-4496
-4391
-4272
-4141
-3996
-3839
-3669
-3488
-3296
-3094
-2884
-2666
-2440
-2208
-1969
-1724
-1475
-1221
-962
-700
-434
-165
104
376
648
919
1188
1452
1712
1965
2211
2450
2680
2901
3113
3316
3510
3693
3867
4029
4179
4315
4436
4543
4637
4717
4787
4847
4897
4938
4970
4993
5005
5007
4997
4977
4946
4905
4854
4794
4723
4640
4544
4435
4310
4171
4018
3851
3672
3482
3282
3072
2853
2625
2390
2148
1899
1645
1385
1122
855
586
317
 48
-220
-486
-750
-1010
-1267
-1521
-1769
-2013
-2252
-2485
-2712
-2932
-3145
-3348
-3542
-3726
-3898
-4058
-4205
-4338
-4457
-4562
-4654
-4733
-4801
-4859
-4906
-4944
-4972
-4989
-4996
-4991
-4974
-4947
-4909
-4861
-4803
-4735
-4658
-4570
-4471
-4359
-4236
-4100
-3951
-3791
-3619
-3437
-3244
-3042
-2829
-2608
-2378
-2140
-1895
-1644
-1389
-1129
-866
-601
-335
-68
199
467
734
1000
1263
1522
1777
2027
2270
2507
2736
2956
3167
3369
3560
3740
3910
4068
4213
4346
4465
4570
4662
4741
4810
4868
4916
4955
4985
5005
5015
5014
5002
4979
4946
4903
4851
4788
4715
4631
4533
4421
4293
4149
3990
3817
3631
3433
3226
3010
2786
2557
2321
2080
1833
1581
1323
1060
792
522
252
-18
-287
-553
-817
-1076
-1332
-1583
-1830
-2073
-2311
-2545
-2774
-2996
-3211
-3417
-3612
-3796
-3967
-4124
-4266
-4394
-4506
-4605
-4691
-4764
-4828
-4882
-4927
-4962
-4989
-5004
-5010
-5004
-4987
-4959
-4921
-4873
-4816
-4749
-4672
-4585
-4485
-4372
-4245
-4104
-3948
-3779
-3597
-3403
-3198
-2984
-2762
-2532
-2296
-2054
-1807
-1556
-1301
-1043
-783
-521
-258
  5
270
535
800
1064
1327
1586
1841
2092
2336
2573
2801
3021
3231
3430
3619
3797
3964
4119
4262
4392
4508
4611
4699
4776
4841
4895
4940
4975
5000
5016
5020
5014
4997
4969
4931
4883
4825
4757
4678
4587
4482
4363
4229
4080
3918
3743
3555
3357
3149
2933
2709
2479
2243
2000
1753
1499
1240
976
708
437
165
-107
-378
-646
-912
-1174
-1432
-1685
-1932
-2174
-2411
-2641
-2865
-3081
-3289
-3489
-3679
-3859
-4026
-4182
-4323
-4450
-4562
-4661
-4746
-4818
-4880
-4932
-4973
-5005
-5027
-5038
-5038
-5026
-5004
-4971
-4927
-4874
-4811
-4739
-4656
-4563
-4458
-4340
-4209
-4064
-3907
-3736
-3553
-3359
-3155
-2941
-2719
-2490
-2254
-2013
-1767
-1517
-1263
-1005
-743
-477
-207
 64
339
615
892
1166
1437
1702
1960
2210
2451
2683
2906
3119
3324
3519
3705
3882
4049
4204
4346
4474
4588
4686
4771
4844
4905
4956
4997
5029
5051
5063
5064
5054
5032
5001
4959
4907
4846
4775
4693
4599
4493
4372
4237
4088
3925
3750
3562
3363
3154
2934
2706
2468
2223
1970
1712
1449
1181
911
639
368
 98
-169
-434
-696
-955
-1210
-1461
-1708
-1950
-2187
-2417
-2641
-2858
-3068
-3269
-3462
-3645
-3820
-3984
-4136
-4275
-4401
-4512
-4608
-4691
-4762
-4821
-4869
-4907
-4936
-4954
-4961
-4957
-4943
-4917
-4880
-4833
-4777
-4712
-4637
-4552
-4456
-4348
-4227
-4093
-3945
-3785
-3612
-3429
-3235
-3031
-2819
-2598
-2371
-2136
-1895
-1648
-1397
-1141
-882
-620
-356
-91
174
441
707
973
1237
1498
1754
2006
2253
2492
2725
2949
3163
3367
3561
3743
3914
4073
4220
4354
4475
4582
4676
4757
4827
4887
4937
4977
5008
5029
5040
5039
5028
5006
4974
4931
4879
4818
4746
4663
4566
4456
4330
4188
4032
3862
3679
3484
3280
3067
2846
2618
2384
2144
1899
1647
1390
1127
860
590
317
 45
-226
-495
-762
-1023
-1280
-1532
-1778
-2018
-2254
-2485
-2711
-2932
-3147
-3354
-3552
-3740
-3916
-4078
-4225
-4356
-4472
-4573
-4660
-4734
-4798
-4852
-4897
-4932
-4958
-4974
-4979
-4973
-4956
-4928
-4889
-4841
-4783
-4716
-4639
-4550
-4450
-4337
-4210
-4069
-3914
-3746
-3566
-3376
-3175
-2966
-2748
-2523
-2291
-2054
-1811
-1564
-1314
-1060
-804
-545
-284
-21
243
510
778
1045
1312
1575
1833
2085
2330
2567
2796
3017
3229
3431
3623
3805
3976
4135
4281
4414
4532
4636
4726
4804
4869
4925
4971
5008
5035
5053
5061
5059
5045
5021
4987
4943
4889
4826
4751
4665
4564
4447
4314
4164
3999
3819
3628
3428
3219
3003
2781
2552
2317
2075
1826
1571
1309
1042
772
501
230
-39
-306
-570
-830
-1086
-1338
-1587
-1831
-2071
-2307
-2539
-2765
-2986
-3198
-3402
-3596
-3777
-3946
-4101
-4240
-4365
-4475
-4572
-4656
-4728
-4791
-4844
-4887
-4921
-4946
-4960
-4963
-4954
-4935
-4906
-4866
-4816
-4758
-4689
-4610
-4520
-4418
-4303
-4175
-4034
-3879
-3713
-3535
-3345
-3146
-2936
-2718
-2491
-2257
-2017
-1771
-1521
-1268
-1012
-753
-492
-230
 34
300
569
838
1106
1372
1635
1891
2140
2382
2615
2840
3056
3263
3460
3648
3825
3992
4147
4290
4419
4535
4636
4724
4800
4864
4918
4962
4997
5023
5038
5043
5037
5021
4994
4956
4909
4853
4786
4708
4617
4514
4395
4262
4114
3953
3777
3590
3391
3181
2961
2732
2495
2251
2001
1745
1484
1218
949
678
405
134
-136
-404
-669
-931
-1190
-1445
-1696
-1943
-2185
-2421
-2652
-2876
-3091
-3298
-3496
-3682
-3857
-4019
-4169
-4305
-4427
-4536
-4631
-4715
-4787
-4849
-4901
-4944
-4976
-4999
-5010
-5011
-5000
-4977
-4944
-4901
-4848
-4785
-4711
-4627
-4530
-4420
-4297
-4159
-4008
-3845
-3671
-3486
-3293
-3091
-2881
-2664
-2440
-2209
-1970
-1726
-1476
-1220
-961
-698
-433
-166
100
369
636
903
1168
1430
1688
1941
2188
2428
2661
2884
3098
3302
3496
3680
3854
4017
4169
4309
4435
4547
4646
4730
4803
4864
4915
4956
4988
5009
5020
5020
5008
4985
4952
4909
4856
4793
4719
4634
4536
4423
4294
4148
3986
3810
3620
3419
3210
2993
2772
2545
2315
2082
1844
1601
1353
1099
840
577
311
 43
-224
-491
-755
-1016
-1273
-1525
-1773
-2015
-2252
-2484
-2709
-2928
-3139
-3342
-3535
-3718
-3890
-4050
-4197
-4331
-4451
-4558
-4652
-4734
-4804
-4863
-4913
-4952
-4982
-5001
-5009
-5006
-4991
-4965
-4928
-4881
-4824
-4758
-4682
-4595
-4497
-4386
-4262
-4124
-3973
-3808
-3632
-3444
-3247
-3040
-2824
-2601
-2370
-2133
-1890
-1642
-1389
-1132
-871
-608
-341
-74
194
463
732
999
1263
1523
1777
2024
2264
2496
2721
2938
3147
3349
3543
3728
3904
4069
4222
4361
4484
4592
4684
4764
4831
4887
4933
4970
4997
5014
5021
5016
5000
4974
4937
4890
4833
4767
4690
4602
4503
4390
4263
4121
3966
3797
3615
3420
3215
2998
2773
2539
2299
2053
1803
1548
1291
1032
771
509
246
-16
-280
-543
-805
-1066
-1325
-1581
-1833
-2079
-2319
-2552
-2777
-2994
-3202
-3401
-3590
-3769
-3938
-4094
-4238
-4369
-4485
-4588
-4678
-4755
-4820
-4875
-4921
-4957
-4983
-5000
-5005
-5001
-4985
-4958
-4921
-4874
-4818
-4752
-4676
-4589
-4490
-4377
-4250
-4108
-3952
-3782
-3600
-3407
-3204
-2992
-2771
-2544
-2310
-2070
-1826
-1577
-1325
-1069
-809
-547
-283
-16
252
523
794
1065
1333
1596
1853
2101
2341
2572
2793
3005
3208
3402
3587
3764
3932
4090
4236
4370
4491
4597
4689
4769
4837
4893
4940
4977
5005
5023
5030
5026
5011
4986
4951
4906
4851
4786
4710
4621
4517
4399
4265
4115
3951
3775
3587
3389
3183
2970
2749
2521
2285
2043
1793
1536
1272
1002
729
454
180
-93
-364
-632
-895
-1154
-1408
-1657
-1900
-2137
-2369
-2594
-2813
-3024
-3228
-3423
-3610
-3786
-3953
-4107
-4249
-4376
-4490
-4589
-4675
-4748
-4810
-4861
-4903
-4934
-4956
-4966
-4966
-4954
-4932
-4899
-4855
-4802
-4740
-4669
-4588
-4495
-4392
-4276
-4147
-4006
-3853
-3687
-3511
-3324
-3127
-2920
-2704
-2477
-2242
-1997
-1745
-1486
-1223
-955
-686
-415
-146
122
389
654
917
1178
1436
1691
1942
2189
2430
2664
2891
3108
3317
3515
3703
3881
4047
4202
4344
4473
4587
4687
4773
4847
4910
4962
5005
5038
5060
5073
5074
5064
5043
5012
4971
4920
4859
4787
4704
4606
4494
4365
4220
4058
3882
3694
3497
3291
3080
2863
2642
2417
2186
1950
1707
1458
1201
938
669
397
122
-151
-425
-695
-962
-1224
-1481
-1731
-1975
-2213
-2443
-2666
-2882
-3090
-3290
-3480
-3661
-3831
-3990
-4136
-4270
-4391
-4499
-4594
-4677
-4749
-4811
-4863
-4906
-4939
-4962
-4974
-4974
-4964
-4942
-4909
-4866
-4813
-4751
-4678
-4595
-4501
-4394
-4273
-4139
-3990
-3828
-3653
-3466
-3267
-3059
-2841
-2615
-2381
-2141
-1896
-1646
-1392
-1135
-876
-615
-353
-89
174
439
703
967
1227
1484
1736
1982
2222
2455
2681
2901
3115
3320
3518
3707
3886
4053
4207
4346
4470
4579
4673
4754
4823
4882
4931
4971
5002
5023
5033
5033
5021
4999
4967
4924
4872
4809
4737
4652
4555
4444
4318
4177
4022
3854
3673
3480
3277
3063
2841
2610
2371
2125
1873
1615
1353
1087
819
549
279
 11
-255
-520
-782
-1041
-1297
-1549
-1797
-2040
-2278
-2510
-2736
-2954
-3164
-3365
-3557
-3739
-3910
-4069
-4215
-4348
-4466
-4569
-4659
-4737
-4802
-4857
-4901
-4936
-4962
-4978
-4983
-4977
-4960
-4933
-4895
-4848
-4792
-4726
-4651
-4565
-4468
-4358
-4235
-4098
-3947
-3784
-3608
-3422
-3225
-3019
-2805
-2582
-2351
-2114
-1871
-1623
-1371
-1116
-858
-599
-338
-76
186
449
712
975
1236
1494
1749
2000
2245
2484
2716
2939
3153
3357
3550
3733
3904
4064
4213
4348
4469
4577
4671
4752
4821
4879
4926
4964
4991
5008
5015
5010
4993
4966
4928
4880
4823
4756
4679
4591
4490
4376
4247
4103
3944
3771
3586
3388
3181
2963
2738
2507
2269
2027
1780
1528
1273
1014
752
489
225
-38
-303
-566
-828
-1087
-1344
-1598
-1847
-2090
-2327
-2558
-2780
-2995
-3201
-3399
-3588
-3767
-3936
-4095
-4241
-4375
-4495
-4600
-4691
-4769
-4834
-4888
-4930
-4962
-4984
-4995
-4995
-4984
-4961
-4928
-4884
-4831
-4769
-4697
-4616
-4524
-4420
-4305
-4177
-4037
-3883
-3718
-3540
-3351
-3152
-2942
-2724
-2497
-2263
-2023
-1778
-1528
-1275
-1019
-762
-503
-242
 18
282
546
811
1075
1339
1600
1857
2109
2356
2595
2826
3048
3260
3461
3650
3829
3995
4149
4290
4416
4528
4626
4711
4784
4847
4900
4944
4980
5005
5021
5026
5020
5004
4977
4940
4894
4838
4772
4694
4605
4501
4382
4247
4097
3932
3753
3562
3360
3149
2929
2703
2470
2232
1988
1740
1486
1227
964
698
429
158
-112
-382
-650
-916
-1178
-1435
-1687
-1933
-2172
-2405
-2630
-2847
-3058
-3260
-3456
-3642
-3819
-3985
-4139
-4279
-4404
-4514
-4611
-4694
-4765
-4825
-4876
-4917
-4949
-4971
-4983
-4983
-4974
-4953
-4922
-4881
-4831
-4771
-4702
-4623
-4531
-4427
-4309
-4175
-4027
-3865
-3691
-3505
-3310
-3106
-2894
-2675
-2450
-2218
-1981
-1739
-1491
-1239
-982
-723
-460
-195
 70
336
603
868
1132
1392
1648
1900
2147
2389
2625
2854
3076
3289
3492
3686
3867
4036
4192
4333
4458
4569
4665
4748
4820
4881
4933
4975
5008
5031
5043
5045
5035
5014
4983
4941
4890
4829
4758
4675
4580
4472
4348
4209
4054
3883
3699
3503
3295
3079
2854
2624
2388
2148
1903
1655
1402
1145
884
621
355
 87
-179
-446
-711
-972
-1230
-1482
-1730
-1971
-2206
-2435
-2658
-2874
-3083
-3284
-3478
-3662
-3835
-3997
-4147
-4283
-4406
-4514
-4610
-4693
-4765
-4826
-4878
-4920
-4953
-4975
-4987
-4987
-4977
-4955
-4923
-4880
-4828
-4766
-4693
-4609
-4513
-4403
-4278
-4139
-3986
-3819
-3641
-3452
-3254
-3047
-2832
-2611
-2383
-2148
-1908
-1662
-1411
-1156
-896
-633
-367
-99
169
438
707
973
1235
1493
1744
1989
2227
2459
2684
2902
3113
3315
3508
3691
3864
4027
4178
4316
4442
4554
4653
4738
4811
4873
4924
4965
4996
5018
5028
5027
5015
4992
4959
4915
4861
4798
4725
4641
4544
4434
4309
4169
4015
3846
3665
3471
3265
3051
2827
2597
2361
2119
1873
1622
1366
1107
844
579
313
 45
-221
-487
-752
-1015
-1274
-1530
-1780
-2025
-2263
-2495
-2720
-2936
-3145
-3345
-3536
-3718
-3889
-4048
-4196
-4330
-4450
-4557
-4650
-4730
-4799
-4856
-4904
-4941
-4969
-4986
-4992
-4988
-4971
-4944
-4907
-4859
-4802
-4735
-4659
-4572
-4473
-4362
-4238
-4100
-3949
-3785
-3610
-3424
-3228
-3023
-2810
-2588
-2360
-2124
-1883
-1636
-1384
-1128
-867
-604
-338
-70
199
470
741
1011
1279
1542
1800
2052
2297
2533
2762
2981
3190
3389
3578
3756
3922
4077
4221
4351
4468
4573
4665
4744
4814
4873
4922
4963
4994
5015
5025
5025
5013
4991
4958
4916
4863
4799
4724
4635
4533
4416
4283
4135
3974
3800
3615
3419
3214
3000
2778
2547
2310
2066
1816
1561
1301
1038
772
505
238
-28
-295
-560
-823
-1084
-1342
-1596
-1844
-2086
-2322
-2550
-2770
-2982
-3185
-3380
-3566
-3742
-3909
-4065
-4209
-4341
-4459
-4564
-4655
-4734
-4800
-4855
-4900
-4935
-4959
-4974
-4977
-4969
-4950
-4920
-4880
-4830
-4771
-4702
-4622
-4531
-4429
-4313
-4184
-4042
-3887
-3719
-3541
-3352
-3153
-2947
-2732
-2510
-2281
-2047
-1807
-1561
-1311
-1056
-798
-536
-271
 -4
264
533
803
1072
1338
1600
1857
2109
2353
2590
2819
3040
3250
3451
3641
3820
3987
4142
4283
4410
4522
4621
4706
4780
4843
4897
4941
4977
5002
5018
5023
5017
5000
4973
4936
4890
4833
4767
4690
4600
4498
4380
4247
4098
3933
3754
3561
3356
3142
2919
2691
2458
2221
1981
1737
1490
1240
985
726
463
197
-71
-341
-611
-880
-1146
-1408
-1665
-1916
-2160
-2397
-2628
-2851
-3067
-3275
-3474
-3664
-3844
-4011
-4165
-4304
-4429
-4538
-4634
-4717
-4788
-4848
-4900
-4941
-4974
-4997
-5009
-5010
-5000
-4979
-4947
-4905
-4853
-4792
-4720
-4638
-4544
-4437
-4316
-4181
-4032
-3869
-3695
-3509
-3312
-3107
-2894
-2673
-2445
-2211
-1972
-1727
-1478
-1225
-968
-708
-446
-182
 83
350
617
884
1149
1411
1669
1922
2169
2410
2643
2869
3087
3295
3494
3682
3858
4022
4173
4309
4431
4538
4632
4713
4784
4844
4895
4938
4972
4996
5010
5014
5007
4990
4962
4924
4876
4819
4752
4674
4584
4480
4362
4228
4080
3916
3739
3549
3346
3133
2910
2677
2437
2190
1938
1681
1420
1156
890
624
358
 94
-167
-426
-684
-939
-1192
-1444
-1692
-1938
-2180
-2418
-2649
-2874
-3090
-3296
-3493
-3678
-3851
-4013
-4162
-4297
-4419
-4528
-4624
-4708
-4781
-4842
-4894
-4936
-4967
-4988
-4998
-4996
-4983
-4959
-4923
-4878
-4822
-4757
-4682
-4596
-4499
-4389
-4265
-4128
-3977
-3813
-3637
-3450
-3253
-3046
-2830
-2607
-2377
-2141
-1900
-1654
-1404
-1150
-893
-633
-371
-106
159
425
692
957
1219
1477
1730
1978
2219
2454
2683
2904
3117
3323
3520
3709
3889
4057
4214
4357
4485
4597
4694
4777
4848
4907
4957
4996
5026
5046
5055
5054
5041
5017
4983
4938
4884
4820
4746
4662
4566
4457
4334
4197
4047
3882
3705
3517
3317
3108
2890
2664
2432
2192
1946
1693
1435
1173
907
638
367
 96
-174
-444
-713
-979
-1242
-1501
-1755
-2002
-2243
-2476
-2700
-2915
-3121
-3317
-3504
-3680
-3847
-4002
-4147
-4279
-4400
-4507
-4603
-4686
-4758
-4821
-4873
-4916
-4948
-4971
-4982
-4982
-4971
-4948
-4914
-4870
-4816
-4753
-4678
-4593
-4495
-4384
-4259
-4119
-3966
-3800
-3623
-3435
-3239
-3035
-2824
-2606
-2382
-2152
-1916
-1674
-1426
-1173
-915
-652
-385
-115
156
429
701
972
1240
1503
1760
2010
2253
2490
2718
2939
3150
3353
3545
3727
3898
4058
4205
4340
4461
4569
4663
4745
4816
4876
4926
4968
5000
5022
5033
5034
5024
5003
4972
4931
4880
4819
4748
4665
4568
4458
4332
4190
4033
3862
3678
3482
3276
3060
2836
2604
2365
2119
1868
1610
1348
1082
813
543
273
  4
-261
-525
-785
-1041
-1293
-1541
-1785
-2024
-2259
-2488
-2713
-2932
-3145
-3351
-3548
-3736
-3913
-4078
-4229
-4365
-4486
-4590
-4680
-4757
-4821
-4874
-4917
-4950
-4974
-4988
-4991
-4983
-4965
-4936
-4897
-4849
-4791
-4723
-4645
-4556
-4454
-4339
-4210
-4068
-3914
-3748
-3570
-3383
-3186
-2981
-2767
-2545
-2315
-2079
-1836
-1587
-1333
-1075
-813
-549
-283
-15
252
520
788
1054
1318
1579
1835
2085
2328
2564
2792
3011
3221
3420
3610
3788
3956
4113
4257
4388
4506
4609
4699
4777
4843
4898
4944
4980
5006
5022
5028
5023
5007
4980
4943
4897
4840
4773
4696
4606
4502
4385
4254
4109
3950
3780
3597
3404
3200
2987
2763
2531
2290
2041
1786
1524
1259
990
720
451
183
-82
-345
-606
-864
-1119
-1371
-1619
-1863
-2103
-2338
-2568
-2791
-3007
-3216
-3416
-3606
-3787
-3957
-4114
-4258
-4388
-4503
-4604
-4693
-4769
-4834
-4889
-4934
-4970
-4996
-5011
-5015
-5008
-4989
-4960
-4921
-4871
-4812
-4743
-4662
-4570
-4465
-4346
-4213
-4066
-3907
-3735
-3553
-3361
-3160
-2952
-2735
-2511
-2279
-2041
-1795
-1544
-1287
-1026
-762
-496
-229
 37
305
572
838
1101
1361
1617
1868
2114
2354
2587
2812
3029
3237
3435
3624
3803
3972
4130
4275
4407
4524
4628
4717
4793
4858
4911
4954
4988
5012
5026
5030
5023
5005
4978
4941
4894
4838
4772
4696
4608
4505
4387
4253
4102
3934
3752
3556
3349
3133
2909
2678
2442
2202
1957
1709
1456
1199
937
671
402
131
-140
-412
-683
-952
-1217
-1477
-1731
-1978
-2218
-2449
-2673
-2889
-3096
-3295
-3486
-3668
-3840
-4001
-4150
-4285
-4408
-4516
-4611
-4694
-4765
-4826
-4877
-4918
-4950
-4972
-4984
-4984
-4974
-4952
-4920
-4878
-4826
-4765
-4694
-4613
-4520
-4415
-4297
-4166
-4021
-3863
-3693
-3511
-3318
-3115
-2902
-2680
-2451
-2215
-1973
-1726
-1475
-1221
-965
-707
-447
-185
 77
341
607
873
1138
1401
1659
1912
2159
2399
2632
2856
3073
3281
3479
3668
3847
4014
4169
4311
4438
4551
4650
4735
4809
4871
4924
4967
5001
5025
5038
5041
5032
5012
4981
4940
4889
4828
4756
4672
4575
4463
4337
4197
4042
3875
3697
3510
3312
3107
2893
2671
2442
2206
1963
1713
1456
1193
925
654
382
110
-160
-429
-694
-956
-1213
-1466
-1715
-1959
-2198
-2432
-2661
-2884
-3099
-3306
-3505
-3692
-3868
-4031
-4181
-4317
-4438
-4545
-4638
-4719
-4789
-4848
-4897
-4937
-4966
-4985
-4994
-4991
-4976
-4951
-4915
-4868
-4812
-4746
-4671
-4584
-4487
-4377
-4255
-4120
-3973
-3813
-3642
-3460
-3268
-3066
-2856
-2638
-2413
-2182
-1946
-1705
-1459
-1208
-953
-693
-429
-160
110
383
658
931
1201
1468
1728
1982
2228
2467
2699
2922
3136
3341
3535
3719
3891
4051
4200
4335
4457
4566
4662
4746
4818
4880
4932
4974
5007
5030
5042
5043
5032
5010
4978
4935
4882
4820
4747
4664
4568
4459
4336
4198
4044
3876
3695
3502
3298
3084
2862
2632
2397
2156
1910
1660
1405
1147
885
620
355
 89
-176
-442
-706
-968
-1227
-1484
-1736
-1984
-2225
-2461
-2688
-2907
-3117
-3318
-3508
-3688
-3857
-4014
-4159
-4292
-4411
-4518
-4611
-4693
-4763
-4823
-4872
-4912
-4942
-4961
-4968
-4965
-4950
-4923
-4886
-4839
-4781
-4714
-4638
-4551
-4452
-4342
-4220
-4085
-3937
-3778
-3607
-3424
-3232
-3029
-2817
-2596
-2368
-2132
-1891
-1644
-1392
-1135
-876
-613
-347
-80
189
459
730
999
1265
1526
1781
2029
2268
2500
2724
2940
3150
3352
3546
3732
3909
4076
4232
4373
4500
4611
4707
4788
4855
4910
4955
4991
5017
5034
5040
5036
5022
4997
4962
4917
4864
4801
4728
4643
4545
4433
4304
4160
4001
3828
3643
3447
3242
3029
2809
2582
2349
2110
1865
1613
1355
1092
825
556
285
 15
-253
-519
-782
-1041
-1297
-1547
-1792
-2033
-2267
-2496
-2719
-2935
-3143
-3344
-3536
-3719
-3890
-4051
-4198
-4331
-4451
-4557
-4649
-4728
-4796
-4853
-4901
-4938
-4966
-4984
-4990
-4986
-4970
-4943
-4906
-4858
-4801
-4734
-4657
-4570
-4470
-4358
-4233
-4094
-3941
-3776
-3600
-3412
-3214
-3007
-2791
-2567
-2336
-2098
-1853
-1604
-1351
-1093
-833
-570
-305
-38
230
500
769
1037
1302
1561
1815
2061
2300
2531
2755
2971
3180
3381
3574
3758
3932
4095
4246
4383
4505
4612
4704
4783
4850
4906
4952
4989
5017
5035
5042
5039
5025
5000
4964
4919
4865
4801
4726
4640
4540
4426
4297
4153
3994
3822
3638
3444
3240
3027
2806
2577
2339
2094
1842
1583
1319
1051
780
508
235
-35
-305
-573
-839
-1101
-1359
-1613
-1862
-2105
-2342
-2572
-2795
-3011
-3218
-3417
-3607
-3786
-3955
-4111
-4254
-4383
-4497
-4598
-4685
-4761
-4825
-4880
-4925
-4961
-4987
-5003
-5007
-5001
-4983
-4955
-4916
-4867
-4809
-4740
-4661
-4570
-4466
-4348
-4216
-4070
-3912
-3740
-3558
-3365
-3163
-2952
-2733
-2506
-2272
-2032
-1786
-1534
-1278
-1018
-755
-490
-225
 40
305
569
831
1091
1347
1599
1846
2088
2325
2556
2781
3000
3212
3415
3610
3794
3968
4129
4277
4412
4531
4636
4727
4805
4870
4925
4970
5005
5030
5045
5049
5042
5024
4995
4956
4906
4847
4776
4694
4599
4489
4366
4228
4077
3914
3740
3556
3362
3158
2945
2723
2491
2251
2004
1750
1491
1226
958
688
418
149
-118
-382
-644
-903
-1160
-1412
-1662
-1907
-2148
-2383
-2612
-2834
-3049
-3254
-3451
-3638
-3814
-3979
-4131
-4271
-4396
-4508
-4605
-4690
-4762
-4823
-4874
-4915
-4947
-4969
-4980
-4980
-4969
-4946
-4914
-4871
-4819
-4758
-4687
-4605
-4513
-4409
-4292
-4162
-4018
-3862
-3693
-3512
-3320
-3119
-2907
-2688
-2460
-2225
-1984
-1737
-1485
-1229
-969
-706
-441
-174
 92
360
628
894
1159
1421
1678
1931
2177
2417
2649
2873
3089
3295
3491
3678
3856
4022
4176
4318
4444
4556
4653
4735
4805
4863
4911
4950
4980
4999
5009
5008
4997
4975
4943
4901
4850
4790
4721
4640
4548
4441
4319
4180
4026
3855
3670
3473
3266
3050
2826
2596
2361
2121
1877
1629
1377
1121
863
601
338
 74
-190
-456
-720
-983
-1244
-1501
-1753
-1999
-2240
-2473
-2698
-2915
-3124
-3323
-3513
-3693
-3862
-4020
-4165
-4299
-4419
-4526
-4621
-4704
-4776
-4838
-4890
-4932
-4965
-4987
-4999
-4999
-4987
-4964
-4930
-4886
-4831
-4767
-4692
-4607
-4509
-4399
-4275
-4138
-3987
-3824
-3649
-3464
-3267
-3061
-2845
-2622
-2390
-2152
-1909
-1662
-1412
-1159
-904
-647
-388
-128
134
399
666
934
1201
1467
1729
1984
2233
2473
2703
2924
3135
3335
3525
3704
3872
4030
4177
4313
4438
4549
4647
4733
4806
4868
4920
4962
4994
5016
5027
5027
5016
4994
4961
4919
4866
4804
4731
4647
4550
4440
4316
4177
4023
3856
3676
3484
3279
3064
2839
2604
2362
2114
1861
1604
1345
1083
821
557
294
 31
-231
-494
-757
-1019
-1279
-1536
-1789
-2036
-2277
-2510
-2735
-2951
-3159
-3358
-3549
-3731
-3903
-4065
-4215
-4352
-4474
-4582
-4675
-4755
-4822
-4879
-4924
-4961
-4987
-5003
-5008
-5002
-4985
-4958
-4920
-4872
-4815
-4749
-4674
-4587
-4489
-4378
-4253
-4113
-3959
-3792
-3611
-3420
-3217
-3005
-2785
-2557
-2323
-2082
-1837
-1587
-1332
-1075
-814
-552
-287
-21
245
513
782
1050
1316
1579
1837
2089
2332
2567
2792
3006
3209
3402
3585
3758
3921
4075
4219
4352
4472
4580
4674
4756
4827
4887
4936
4976
5006
5026
5034
5032
5019
4995
4961
4916
4862
4798
4722
4634
4532
4415
4284
4137
3975
3801
3614
3416
3208
2991
2766
2532
2292
2044
1791
1533
1270
1004
736
466
197
-70
-338
-603
-866
-1126
-1383
-1634
-1881
-2122
-2357
-2585
-2806
-3019
-3224
-3421
-3609
-3788
-3955
-4111
-4255
-4384
-4499
-4600
-4687
-4762
-4825
-4878
-4922
-4955
-4978
-4991
-4992
-4982
-4961
-4929
-4886
-4834
-4773
-4702
-4620
-4528
-4423
-4306
-4176
-4032
-3876
-3709
-3530
-3342
-3144
-2939
-2726
-2506
-2279
-2045
-1805
-1558
-1306
-1049
-787
-522
-255
 13
282
551
817
1081
1341
1596
1845
2088
2325
2556
2781
2999
3209
3413
3608
3794
3970
4134
4285
4421
4542
4647
4736
4812
4876
4929
4972
5006
5030
5044
5047
5040
5022
4994
4955
4907
4850
4782
4704
4613
4509
4390
4255
4105
3940
3761
3569
3367
3155
2935
2708
2476
2238
1995
1748
1497
1240
980
716
449
180
-89
-358
-627
-894
-1158
-1418
-1674
-1925
-2170
-2409
-2641
-2866
-3082
-3290
-3489
-3677
-3855
-4020
-4172
-4310
-4433
-4541
-4635
-4716
-4786
-4845
-4895
-4935
-4966
-4986
-4996
-4996
-4984
-4961
-4928
-4885
-4833
-4771
-4699
-4617
-4524
-4418
-4298
-4165
-4019
-3858
-3686
-3502
-3307
-3104
-2891
-2671
-2444
-2211
-1971
-1726
-1477
-1223
-965
-705
-443
-179
 84
350
616
882
1147
1411
1671
1927
2179
2424
2661
2890
3109
3317
3513
3698
3872
4033
4183
4319
4441
4550
4646
4729
4801
4863
4916
4959
4993
5017
5030
5032
5024
5004
4974
4934
4884
4824
4754
4674
4581
4474
4353
4217
4066
3900
3721
3530
3328
3116
2895
2667
2432
2191
1944
1691
1434
1172
906
638
369
100
-167
-434
-698
-960
-1218
-1473
-1724
-1971
-2213
-2448
-2678
-2900
-3114
-3319
-3515
-3700
-3874
-4035
-4183
-4318
-4438
-4544
-4637
-4717
-4785
-4843
-4890
-4929
-4958
-4976
-4984
-4981
-4968
-4943
-4907
-4862
-4807
-4743
-4670
-4586
-4491
-4383
-4263
-4128
-3980
-3819
-3647
-3464
-3271
-3070
-2862
-2645
-2421
-2190
-1951
-1706
-1454
-1196
-934
-669
-401
-131
138
409
678
945
1210
1470
1726
1977
2221
2459
2689
2911
3125
3330
3526
3712
3890
4057
4213
4356
4485
4599
4698
4782
4854
4915
4965
5005
5036
5058
5068
5068
5057
5035
5003
4960
4908
4846
4774
4691
4595
4485
4360
4218
4061
3889
3703
3507
3302
3088
2867
2639
2404
2162
1913
1657
1394
1124
851
574
296
 20
-252
-522
-787
-1047
-1301
-1550
-1793
-2032
-2266
-2495
-2719
-2938
-3150
-3355
-3551
-3736
-3909
-4068
-4213
-4343
-4458
-4559
-4647
-4722
-4787
-4843
-4890
-4927
-4955
-4973
-4980
-4976
-4961
-4935
-4898
-4851
-4795
-4728
-4652
-4564
-4464
-4350
-4223
-4081
-3926
-3759
-3581
-3393
-3196
-2990
-2777
-2556
-2328
-2092
-1850
-1601
-1348
-1089
-827
-563
-297
-31
235
501
766
1030
1292
1551
1805
2056
2301
2540
2772
2996
3211
3417
3613
3798
3971
4133
4282
4416
4536
4642
4733
4810
4875
4929
4974
5009
5034
5049
5054
5048
5032
5006
4969
4924
4869
4804
4728
4640
4538
4422
4289
4142
3980
3804
3617
3419
3211
2996
2773
2543
2307
2065
1816
1561
1300
1035
766
495
223
-46
-315
-581
-844
-1102
-1357
-1606
-1850
-2089
-2323
-2550
-2772
-2986
-3193
-3392
-3583
-3763
-3933
-4091
-4236
-4368
-4486
-4589
-4680
-4757
-4823
-4878
-4923
-4959
-4984
-4999
-5003
-4995
-4977
-4947
-4907
-4857
-4797
-4727
-4646
-4553
-4447
-4327
-4194
-4048
-3890
-3720
-3540
-3352
-3154
-2948
-2734
-2512
-2281
-2042
-1795
-1542
-1284
-1023
-759
-495
-230
 33
295
557
819
1080
1339
1598
1854
2107
2355
2597
2830
3052
3263
3461
3646
3819
3979
4129
4268
4395
4511
4615
4707
4786
4854
4912
4959
4997
5025
5043
5049
5045
5029
5002
4964
4917
4859
4791
4711
4618
4512
4391
4256
4106
3943
3768
3582
3385
3180
2965
2741
2510
2271
2025
1772
1512
1247
978
706
434
162
-108
-377
-643
-906
-1166
-1422
-1673
-1918
-2158
-2391
-2619
-2839
-3052
-3257
-3453
-3639
-3815
-3979
-4131
-4268
-4391
-4500
-4595
-4677
-4748
-4809
-4859
-4901
-4933
-4955
-4967
-4967
-4957
-4936
-4905
-4864
-4813
-4753
-4684
-4604
-4513
-4409
-4291
-4160
-4014
-3854
-3681
-3495
-3298
-3092
-2876
-2653
-2423
-2188
-1947
-1702
-1454
-1202
-947
-689
-429
-168
 94
359
625
891
1157
1421
1682
1939
2191
2436
2673
2901
3119
3326
3521
3704
3875
4033
4178
4311
4431
4538
4632
4715
4787
4849
4902
4946
4981
5006
5021
5025
5018
5000
4971
4933
4885
4827
4759
4680
4589
4484
4366
4232
4084
3921
3746
3557
3357
3146
2925
2696
2460
2218
1971
1721
1466
1209
948
686
421
155
-110
-377
-643
-907
-1169
-1427
-1680
-1928
-2169
-2404
-2630
-2849
-3060
-3263
-3457
-3643
-3819
-3985
-4139
-4280
-4407
-4520
-4619
-4703
-4775
-4836
-4886
-4926
-4956
-4976
-4986
-4985
-4972
-4949
-4915
-4871
-4818
-4755
-4683
-4601
-4508
-4403
-4284
-4151
-4005
-3845
-3673
-3490
-3297
-3097
-2889
-2676
-2458
-2234
-2004
-1769
-1526
-1277
-1021
-758
-489
-215
 62
342
622
901
1176
1446
1709
1965
2212
2450
2679
2900
3111
3313
3507
3692
3867
4033
4188
4329
4456
4567
4664
4748
4819
4878
4928
4969
4999
5020
5031
5031
5020
4998
4965
4922
4870
4808
4735
4651
4554
4443
4318
4178
4024
3857
3678
3489
3289
3080
2861
2633
2398
2154
1904
1647
1384
1118
849
579
309
 41
-223
-486
-746
-1003
-1257
-1507
-1754
-1998
-2238
-2473
-2704
-2927
-3143
-3350
-3547
-3733
-3906
-4067
-4214
-4347
-4466
-4572
-4665
-4745
-4814
-4873
-4922
-4961
-4990
-5009
-5018
-5015
-5000
-4975
-4939
-4892
-4836
-4771
-4695
-4609
-4512
-4403
-4281
-4146
-3998
-3838
-3666
-3482
-3287
-3081
-2864
-2637
-2402
-2159
-1909
-1654
-1395
-1134
-870
-606
-342
-78
186
449
712
975
1236
1495
1751
2004
2252
2493
2727
2952
3166
3367
3557
3734
3899
4052
4193
4323
4440
4545
4638
4719
4788
4848
4898
4939
4970
4991
5001
5001
4989
4967
4934
4891
4838
4776
4703
4619
4521
4409
4281
4138
3980
3807
3622
3427
3222
3008
2788
2561
2328
2089
1843
1591
1332
1067
797
523
248
-26
-299
-570
-836
-1096
-1352
-1601
-1844
-2081
-2312
-2538
-2758
-2972
-3179
-3378
-3568
-3748
-3917
-4072
-4215
-4343
-4457
-4557
-4645
-4721
-4787
-4844
-4892
-4930
-4959
-4978
-4987
-4984
-4970
-4945
-4910
-4864
-4810
-4746
-4672
-4587
-4490
-4379
-4254
-4115
-3961
-3793
-3613
-3422
-3220
-3010
-2793
-2569
-2339
-2105
-1866
-1622
-1375
-1123
-866
-605
-340
-72
199
474
749
1024
1296
1562
1822
2073
2315
2548
2772
2987
3194
3392
3582
3765
3937
4100
4251
4388
4510
4618
4710
4789
4856
4911
4957
4993
5019
5035
5041
5036
5020
4993
4956
4909
4852
4787
4711
4624
4525
4412
4284
4142
3985
3814
3631
3437
3232
3018
2795
2565
2328
2085
1838
1585
1328
1067
804
538
271
  4
-263
-529
-794
-1058
-1317
-1573
-1824
-2070
-2309
-2541
-2765
-2982
-3189
-3388
-3578
-3757
-3925
-4081
-4224
-4353
-4468
-4569
-4657
-4733
-4798
-4853
-4899
-4935
-4961
-4977
-4981
-4975
-4957
-4928
-4889
-4840
-4781
-4713
-4636
-4547
-4447
-4334
-4207
-4066
-3911
-3743
-3563
-3371
-3170
-2959
-2740
-2515
-2282
-2044
-1801
-1553
-1301
-1045
-785
-523
-258
  7
275
544
813
1082
1349
1612
1871
2124
2369
2607
2835
3054
3263
3461
3649
3826
3993
4147
4290
4419
4535
4638
4727
4805
4871
4927
4974
5011
5038
5056
5062
5058
5042
5016
4979
4932
4874
4806
4727
4634
4528
4407
4272
4122
3958
3783
3596
3399
3192
2977
2753
2521
2283
2038
1787
1531
1272
1010
745
480
213
-53
-320
-586
-852
-1115
-1376
-1633
-1884
-2130
-2368
-2599
-2822
-3036
-3242
-3439
-3627
-3805
-3973
-4128
-4271
-4400
-4513
-4613
-4698
-4772
-4833
-4885
-4927
-4960
-4983
-4996
-4998
-4990
-4971
-4941
-4902
-4853
-4795
-4728
-4650
-4560
-4457
-4340
-4208
-4062
-3901
-3728
-3544
-3350
-3147
-2936
-2719
-2496
-2266
-2031
-1790
-1544
-1292
-1035
-775
-510
-243
 25
296
567
837
1106
1371
1633
1888
2137
2379
2613
2839
3055
3262
3459
3646
3823
3989
4143
4285
4413
4527
4627
4714
4789
4853
4908
4953
4989
5014
5030
5035
5028
5011
4982
4944
4895
4837
4769
4689
4597
4491
4371
4236
4087
3923
3747
3558
3359
3150
2932
2706
2472
2233
1988
1738
1483
1225
962
697
430
162
-105
-372
-637
-900
-1160
-1417
-1670
-1918
-2160
-2397
-2627
-2850
-3065
-3272
-3469
-3657
-3834
-3999
-4151
-4290
-4414
-4524
-4619
-4702
-4773
-4833
-4883
-4923
-4953
-4974
-4983
-4981
-4968
-4945
-4910
-4866
-4812
-4749
-4677
-4594
-4501
-4396
-4277
-4144
-3998
-3837
-3662
-3475
-3277
-3069
-2852
-2627
-2397
-2162
-1922
-1678
-1430
-1177
-922
-662
-399
-133
133
402
671
938
1203
1463
1717
1965
2206
2441
2667
2887
3098
3302
3497
3682
3858
4022
4174
4312
4436
4545
4641
4723
4794
4855
4905
4947
4979
5001
5013
5014
5003
4981
4949
4906
4854
4791
4718
4632
4534
4421
4294
4152
3996
3827
3646
3455
3254
3043
2825
2598
2365
2126
1881
1630
1374
1114
849
582
313
 44
-224
-491
-757
-1019
-1279
-1534
-1784
-2028
-2266
-2498
-2722
-2939
-3148
-3348
-3540
-3722
-3894
-4054
-4202
-4337
-4458
-4565
-4658
-4738
-4806
-4863
-4910
-4947
-4975
-4991
-4997
-4992
-4976
-4948
-4910
-4863
-4805
-4739
-4663
-4576
-4478
-4367
-4243
-4105
-3954
-3791
-3618
-3434
-3241
-3041
-2832
-2616
-2393
-2162
-1923
-1678
-1426
-1168
-905
-639
-371
-101
167
436
704
969
1230
1488
1742
1991
2235
2473
2705
2930
3147
3356
3555
3743
3921
4085
4236
4373
4493
4598
4689
4766
4832
4888
4934
4972
5000
5019
5027
5025
5012
4989
4955
4911
4858
4795
4722
4637
4540
4429
4303
4162
4006
3836
3654
3460
3256
3042
2821
2592
2357
2117
1871
1620
1363
1102
837
568
298
 26
-244
-514
-783
-1047
-1308
-1564
-1814
-2057
-2294
-2523
-2746
-2961
-3169
-3369
-3560
-3742
-3913
-4074
-4221
-4355
-4474
-4579
-4670
-4748
-4814
-4869
-4914
-4949
-4975
-4990
-4995
-4988
-4971
-4942
-4903
-4855
-4796
-4729
-4652
-4563
-4463
-4351
-4224
-4084
-3931
-3766
-3590
-3403
-3207
-3002
-2789
-2567
-2336
-2098
-1853
-1601
-1343
-1081
-817
-550
-283
-17
248
512
775
1036
1296
1553
1806
2056
2300
2539
2770
2993
3207
3410
3602
3783
3952
4110
4254
4386
4504
4608
4699
4777
4844
4900
4946
4983
5010
5027
5034
5030
5014
4988
4952
4905
4849
4783
4707
4619
4519
4405
4276
4133
3975
3803
3619
3424
3218
3003
2780
2548
2310
2065
1815
1560
1300
1037
772
506
240
-23
-287
-549
-810
-1068
-1324
-1577
-1826
-2070
-2310
-2543
-2770
-2989
-3199
-3399
-3590
-3769
-3937
-4093
-4235
-4363
-4477
-4578
-4665
-4741
-4806
-4861
-4906
-4942
-4967
-4982
-4987
-4980
-4961
-4933
-4894
-4845
-4787
-4719
-4641
-4551
-4448
-4331
-4200
-4054
-3895
-3722
-3538
-3343
-3139
-2926
-2705
-2478
-2245
-2006
-1762
-1513
-1260
-1003
-743
-480
-216
 49
316
583
850
1116
1379
1639
1894
2143
2386
2622
2849
3067
3276
3474
3662
3839
4006
4161
4304
4432
4547
4647
4733
4807
4870
4922
4965
4999
5022
5035
5037
5029
5009
4978
4938
4888
4829
4761
4684
4596
4495
4381
4252
4107
3946
3771
3581
3379
3167
2945
2715
2479
2237
1990
1738
1482
1221
957
690
421
150
-119
-388
-655
-919
-1181
-1438
-1691
-1938
-2180
-2415
-2643
-2863
-3075
-3277
-3470
-3652
-3825
-3986
-4135
-4273
-4398
-4510
-4610
-4697
-4772
-4837
-4892
-4937
-4972
-4997
-5010
-5012
-5002
-4981
-4949
-4906
-4852
-4788
-4714
-4627
-4528
-4415
-4287
-4146
-3990
-3822
-3643
-3454
-3257
-3052
-2840
-2621
-2396
-2164
-1926
-1681
-1432
-1178
-920
-660
-397
-133
131
396
661
925
1187
1448
1705
1958
2207
2449
2685
2912
3130
3337
3534
3720
3894
4057
4207
4344
4467
4576
4671
4753
4824
4885
4935
4976
5007
5028
5038
5037
5025
5001
4967
4923
4869
4805
4732
4649
4554
4447
4327
4192
4043
3879
3702
3512
3310
3097
2875
2644
2408
2165
1917
1664
1407
1146
882
615
348
 80
-186
-452
-715
-975
-1232
-1486
-1735
-1980
-2220
-2455
-2684
-2907
-3123
-3329
-3526
-3713
-3887
-4048
-4196
-4329
-4448
-4554
-4646
-4725
-4794
-4852
-4901
-4941
-4971
-4991
-5001
-4999
-4987
-4964
-4930
-4886
-4833
-4770
-4696
-4611
-4514
-4402
-4277
-4136
-3982
-3815
-3636
-3446
-3248
-3041
-2827
-2605
-2377
-2141
-1900
-1652
-1398
-1139
-876
-610
-341
-72
196
465
731
995
1254
1509
1759
2002
2239
2470
2694
2913
3125
3330
3528
3716
3895
4061
4215
4353
4476
4584
4677
4757
4825
4883
4931
4970
4999
5018
5027
5025
5013
4989
4956
4912
4859
4794
4719
4630
4526
4407
4272
4122
3957
3780
3592
3395
3191
2981
2764
2542
2314
2080
1839
1592
1338
1078
812
543
271
 -1
-273
-543
-810
-1074
-1332
-1585
-1832
-2073
-2307
-2535
-2755
-2968
-3173
-3370
-3558
-3737
-3905
-4062
-4207
-4340
-4458
-4563
-4654
-4732
-4799
-4855
-4901
-4937
-4964
-4980
-4986
-4981
-4966
-4939
-4903
-4856
-4801
-4736
-4662
-4578
-4483
-4374
-4251
-4113
-3960
-3792
-3610
-3416
-3211
-2998
-2778
-2552
-2320
-2084
-1843
-1597
-1346
-1091
-831
-567
-300
-30
241
514
786
1057
1324
1585
1840
2087
2326
2558
2782
2998
3205
3403
3592
3771
3939
4096
4240
4371
4488
4590
4680
4757
4822
4878
4924
4961
4989
5008
5016
5014
5001
4978
4944
4900
4847
4784
4710
4625
4525
4410
4279
4132
3970
3793
3604
3404
3195
2977
2750
2517
2277
2031
1778
1520
1257
991
722
453
184
-82
-346
-608
-867
-1123
-1375
-1623
-1868
-2109
-2346
-2577
-2803
-3021
-3231
-3431
-3621
-3799
-3965
-4118
-4258
-4384
-4496
-4595
-4681
-4755
-4818
-4871
-4914
-4948
-4971
-4983
-4985
-4974
-4953
-4921
-4878
-4826
-4764
-4693
-4611
-4519
-4415
-4300
-4171
-4031
-3878
-3713
-3537
-3349
-3152
-2944
-2728
-2502
-2269
-2030
-1784
-1534
-1279
-1021
-761
-498
-234
 30
297
563
829
1094
1356
1613
1865
2110
2349
2580
2804
3020
3228
3427
3618
3799
3969
4127
4271
4400
4514
4612
4697
4768
4829
4880
4922
4955
4979
4993
4997
4991
4974
4947
4910
4864
4809
4744
4669
4580
4479
4362
4229
4081
3918
3741
3552
3353
3144
2926
2700
2468
2229
1983
1732
1474
1210
942
671
398
125
-145
-414
-678
-939
-1195
-1447
-1693
-1936
-2174
-2408
-2636
-2859
-3074
-3281
-3478
-3664
-3838
-4000
-4149
-4284
-4406
-4515
-4613
-4698
-4773
-4838
-4893
-4939
-4975
-5000
-5014
-5016
-5007
-4986
-4954
-4910
-4857
-4793
-4720
-4635
-4540
-4432
-4312
-4179
-4033
-3874
-3703
-3520
-3327
-3123
-2911
-2689
-2461
-2226
-1985
-1740
-1490
-1236
-978
-716
-451
-184
 85
356
628
898
1166
1429
1687
1937
2179
2414
2641
2860
3073
3278
3476
3665
3844
4013
4169
4311
4439
4551
4649
4733
4804
4865
4916
4957
4989
5011
5022
5023
5013
4993
4961
4920
4869
4808
4737
4655
4560
4450
4327
4188
4035
3870
3692
3503
3305
3097
2881
2658
2428
2192
1948
1698
1441
1178
909
636
361
 85
-189
-462
-732
-998
-1258
-1512
-1760
-2002
-2238
-2467
-2691
-2908
-3119
-3323
-3519
-3707
-3884
-4050
-4203
-4342
-4466
-4575
-4668
-4749
-4817
-4874
-4920
-4957
-4984
-5000
-5006
-5001
-4984
-4956
-4918
-4870
-4813
-4746
-4670
-4584
-4488
-4380
-4259
-4126
-3980
-3821
-3651
-3469
-3277
-3075
-2864
-2645
-2417
-2181
-1938
-1690
-1435
-1176
-914
-648
-381
-113
156
425
693
960
1224
1485
1741
1991
2235
2471
2699
2919
3129
3330
3522
3705
3878
4040
4190
4327
4451
4560
4655
4737
4808
4868
4918
4959
4991
5012
5023
5022
5011
4988
4955
4912
4858
4795
4722
4636
4538
4426
4299
4157
4001
3831
3648
3455
3251
3037
2815
2586
2350
2107
1859
1604
1345
1081
814
544
273
  2
-267
-536
-803
-1066
-1326
-1581
-1830
-2073
-2309
-2538
-2760
-2973
-3179
-3377
-3566
-3746
-3916
-4075
-4222
-4355
-4474
-4578
-4668
-4745
-4810
-4865
-4909
-4943
-4968
-4983
-4988
-4981
-4964
-4936
-4898
-4850
-4792
-4726
-4649
-4561
-4462
-4349
-4222
-4081
-3927
-3761
-3583
-3395
-3199
-2993
-2780
-2559
-2330
-2094
-1851
-1602
-1348
-1090
-828
-565
-301
-35
230
496
763
1029
1293
1556
1815
2070
2320
2562
2795
3019
3233
3435
3625
3803
3970
4124
4265
4393
4507
4607
4695
4771
4836
4891
4937
4973
5000
5017
5022
5017
5000
4973
4935
4887
4831
4765
4689
4604
4507
4397
4273
4133
3979
3808
3624
3425
3215
2994
2765
2529
2288
2042
1793
1540
1284
1026
764
501
236
-30
-297
-564
-829
-1092
-1351
-1605
-1853
-2095
-2331
-2559
-2780
-2994
-3200
-3399
-3588
-3769
-3938
-4095
-4239
-4367
-4481
-4580
-4665
-4738
-4800
-4851
-4894
-4927
-4951
-4964
-4967
-4958
-4939
-4910
-4870
-4821
-4763
-4694
-4615
-4524
-4420
-4302
-4170
-4025
-3867
-3696
-3515
-3325
-3125
-2916
-2700
-2476
-2245
-2007
-1763
-1513
-1259
-1002
-741
-478
-212
 53
320
588
855
1120
1382
1639
1889
2131
2366
2592
2812
3025
3230
3429
3619
3800
3971
4132
4280
4414
4535
4640
4731
4809
4874
4928
4971
5005
5029
5043
5046
5038
5019
4990
4951
4902
4843
4774
4695
4603
4498
4378
4244
4095
3932
3757
3569
3371
3163
2946
2721
2488
2249
2002
1749
1491
1228
961
693
424
156
-109
-372
-633
-890
-1145
-1397
-1646
-1892
-2134
-2372
-2605
-2831
-3048
-3257
-3455
-3641
-3816
-3977
-4126
-4261
-4383
-4492
-4588
-4673
-4746
-4810
-4863
-4907
-4941
-4965
-4977
-4978
-4968
-4946
-4913
-4870
-4816
-4753
-4679
-4595
-4498
-4389
-4267
-4132
-3984
-3824
-3652
-3470
-3277
-3074
-2862
-2642
-2415
-2182
-1943
-1700
-1453
-1203
-950
-694
-435
-173
 91
358
628
898
1168
1434
1697
1954
2203
2445
2678
2901
3113
3316
3508
3691
3865
4028
4181
4322
4451
4566
4667
4754
4829
4893
4946
4989
5022
5045
5057
5058
5048
5027
4996
4954
4903
4842
4771
4690
4597
4490
4368
4232
4079
3912
3731
3538
3335
3122
2901
2673
2437
2196
1948
1694
1433
1168
899
628
356
 85
-182
-447
-708
-965
-1219
-1469
-1715
-1957
-2195
-2429
-2657
-2878
-3092
-3297
-3491
-3675
-3848
-4009
-4157
-4292
-4414
-4522
-4618
-4702
-4774
-4835
-4886
-4927
-4958
-4978
-4987
-4984
-4970
-4944
-4907
-4859
-4802
-4735
-4658
-4571
-4471
-4359
-4234
-4095
-3943
-3779
-3604
-3418
-3223
-3020
-2809
-2591
-2365
-2133
-1895
-1649
-1398
-1141
-880
-614
-346
-75
196
467
738
1006
1271
1531
1785
2032
2273
2506
2732
2951
3162
3366
3561
3748
3924
4089
4241
4378
4500
4606
4697
4775
4841
4897
4943
4980
5007
5025
5033
5030
5017
4993
4958
4914
4861
4799
4726
4642
4546
4436
4311
4171
4017
3849
3667
3474
3269
3055
2831
2599
2359
2113
1861
1604
1343
1077
810
542
274
  6
-258
-522
-785
-1045
-1302
-1556
-1807
-2053
-2294
-2529
-2756
-2975
-3185
-3384
-3573
-3751
-3917
-4072
-4214
-4343
-4459
-4562
-4653
-4732
-4799
-4857
-4904
-4942
-4970
-4987
-4993
-4988
-4971
-4944
-4905
-4857
-4799
-4730
-4651
-4560
-4456
-4340
-4211
-4070
-3916
-3750
-3575
-3390
-3195
-2992
-2780
-2560
-2332
-2097
-1855
-1607
-1353
-1095
-834
-570
-304
-36
232
500
769
1036
1300
1560
1815
2065
2307
2543
2772
2992
3202
3403
3595
3775
3945
4103
4249
4382
4500
4604
4694
4771
4836
4890
4934
4968
4992
5007
5010
5003
4985
4956
4918
4869
4811
4742
4663
4573
4469
4352
4221
4075
3917
3745
3561
3366
3160
2944
2719
2487
2248
2002
1751
1494
1232
966
697
427
157
-112
-379
-644
-906
-1165
-1419
-1668
-1913
-2152
-2386
-2614
-2836
-3051
-3258
-3456
-3645
-3824
-3990
-4143
-4282
-4406
-4516
-4611
-4694
-4766
-4828
-4880
-4923
-4957
-4981
-4995
-4998
-4990
-4971
-4942
-4903
-4854
-4796
-4728
-4650
-4559
-4456
-4338
-4206
-4060
-3900
-3727
-3541
-3345
-3139
-2923
-2700
-2470
-2234
-1993
-1748
-1498
-1246
-990
-731
-469
-205
 60
327
596
864
1130
1393
1650
1902
2145
2381
2610
2831
3045
3252
3452
3643
3825
3998
4159
4307
4441
4560
4664
4753
4828
4891
4942
4983
5015
5037
5048
5049
5039
5018
4987
4945
4894
4833
4762
4679
4583
4473
4348
4209
4055
3887
3708
3518
3318
3109
2892
2668
2436
2199
1955
1706
1451
1192
928
663
395
127
-139
-406
-671
-935
-1195
-1452
-1705
-1952
-2194
-2429
-2657
-2876
-3087
-3290
-3484
-3669
-3843
-4007
-4158
-4296
-4420
-4530
-4625
-4707
-4777
-4836
-4885
-4924
-4953
-4971
-4979
-4976
-4961
-4936
-4900
-4853
-4798
-4733
-4659
-4574
-4479
-4371
-4250
-4116
-3969
-3808
-3636
-3453
-3260
-3058
-2849
-2631
-2407
-2175
-1936
-1690
-1438
-1179
-915
-647
-376
-103
170
443
715
984
1250
1510
1765
2015
2257
2493
2722
2944
3157
3363
3559
3746
3923
4088
4240
4378
4501
4609
4702
4782
4850
4907
4955
4994
5023
5042
5051
5048
5035
5011
4976
4932
4877
4814
4740
4656
4560
4452
4329
4192
4040
3875
3696
3506
3306
3095
2875
2647
2411
2167
1917
1661
1399
1134
866
597
328
 60
-206
-470
-731
-989
-1243
-1494
-1740
-1983
-2220
-2454
-2681
-2903
-3118
-3326
-3525
-3715
-3894
-4060
-4212
-4349
-4470
-4576
-4668
-4746
-4812
-4868
-4914
-4951
-4979
-4996
-5003
-5000
-4986
-4960
-4925
-4880
-4825
-4760
-4685
-4600
-4501
-4390
-4264
-4124
-3970
-3803
-3625
-3436
-3237
-3029
-2813
-2588
-2356
-2117
-1872
-1622
-1368
-1111
-852
-592
-330
-68
193
457
720
984
1248
1510
1769
2024
2273
2516
2751
2976
3190
3393
3584
3763
3930
4086
4230
4362
4481
4587
4680
4761
4831
4890
4940
4980
5010
5030
5040
5038
5026
5002
4968
4923
4869
4805
4730
4644
4545
4431
4302
4157
3998
3824
3638
3440
3232
3015
2790
2558
2320
2076
1827
1573
1314
1050
783
513
242
-29
-300
-570
-837
-1101
-1360
-1614
-1861
-2102
-2337
-2564
-2785
-2999
-3206
-3406
-3598
-3781
-3953
-4114
-4261
-4393
-4510
-4612
-4700
-4775
-4839
-4892
-4936
-4971
-4995
-5010
-5014
-5006
-4988
-4959
-4919
-4870
-4812
-4745
-4668
-4580
-4480
-4367
-4240
-4099
-3944
-3775
-3594
-3401
-3197
-2983
-2761
-2531
-2294
-2052
-1805
-1554
-1301
-1045
-787
-528
-268
 -6
256
520
785
1049
1313
1573
1829
2080
2323
2558
2785
3002
3209
3407
3595
3772
3940
4095
4238
4366
4481
4581
4667
4742
4806
4860
4905
4941
4968
4984
4990
4986
4970
4945
4910
4865
4810
4746
4670
4582
4480
4362
4229
4081
3919
3744
3558
3362
3157
2944
2724
2497
2262
2020
1770
1512
1248
979
706
432
158
-114
-383
-649
-911
-1169
-1422
-1670
-1913
-2152
-2386
-2614
-2837
-3053
-3261
-3461
-3652
-3831
-3999
-4154
-4295
-4422
-4534
-4631
-4716
-4789
-4850
-4902
-4944
-4976
-4998
-5009
-5009
-4998
-4975
-4941
-4897
-4843
-4779
-4706
-4621
-4525
-4418
-4297
-4163
-4017
-3858
-3687
-3505
-3312
-3111
-2900
-2681
-2455
-2222
-1982
-1738
-1488
-1234
-975
-713
-448
-181
 88
359
631
902
1171
1436
1695
1948
2194
2432
2661
2881
3093
3295
3488
3671
3845
4009
4163
4303
4431
4544
4643
4729
4802
4864
4916
4959
4992
5015
5028
5030
5022
5002
4973
4933
4884
4825
4757
4677
4584
4477
4355
4216
4061
3891
3707
3511
3305
3091
2869
2641
2407
2166
1921
1669
1413
1152
887
620
351
 82
-185
-451
-714
-975
-1232
-1485
-1733
-1977
-2216
-2449
-2676
-2897
-3109
-3314
-3508
-3693
-3867
-4028
-4176
-4311
-4431
-4537
-4630
-4710
-4778
-4836
-4884
-4922
-4950
-4968
-4976
-4973
-4958
-4932
-4896
-4850
-4794
-4730
-4655
-4570
-4475
-4366
-4245
-4110
-3961
-3798
-3624
-3438
-3242
-3038
-2825
-2605
-2378
-2145
-1904
-1658
-1405
-1147
-885
-619
-351
-82
185
450
713
971
1224
1471
1712
1947
2178
2405
2629
2849
3066
3278
3484
3681
3868
4043
4203
4347
4474
4585
4680
4761
4830
4888
4937
4977
5008
5028
5039
5038
5026
5004
4971
4928
4875
4813
4740
4655
4557
4445
4317
4175
4018
3847
3664
3470
3265
3050
2827
2597
2359
2115
1866
1611
1352
1088
822
554
285
 15
-252
-520
-785
-1049
-1309
-1565
-1816
-2061
-2300
-2531
-2754
-2969
-3176
-3374
-3562
-3741
-3910
-4068
-4213
-4346
-4465
-4570
-4662
-4741
-4808
-4865
-4912
-4949
-4976
-4993
-5000
-4995
-4979
-4953
-4916
-4870
-4814
-4747
-4669
-4580
-4476
-4359
-4227
-4080
-3920
-3748
-3566
-3374
-3175
-2968
-2755
-2535
-2308
-2075
-1835
-1589
-1338
-1081
-820
-556
-290
-22
246
514
782
1049
1314
1575
1833
2085
2332
2573
2806
3029
3243
3446
3637
3816
3984
4138
4280
4408
4521
4622
4709
4785
4850
4906
4952
4989
5016
5033
5040
5035
5019
4993
4956
4909
4852
4786
4710
4623
4522
4408
4279
4135
3977
3805
3620
3424
3217
3000
2775
2541
2301
2054
1802
1544
1282
1018
751
484
217
-47
-312
-575
-836
-1096
-1354
-1609
-1860
-2108
-2351
-2587
-2817
-3038
-3251
-3453
-3645
-3825
-3994
-4149
-4291
-4418
-4530
-4627
-4711
-4783
-4843
-4893
-4933
-4964
-4985
-4996
-4996
-4985
-4964
-4932
-4890
-4839
-4779
-4709
-4629
-4538
-4435
-4319
-4189
-4046
-3890
-3721
-3540
-3349
-3148
-2939
-2721
-2496
-2264
-2025
-1781
-1532
-1279
-1022
-761
-498
-233
 32
300
568
836
1103
1367
1627
1882
2132
2375
2611
2839
3059
3270
3472
3663
3845
4015
4174
4319
4451
4568
4670
4759
4834
4897
4949
4992
5025
5049
5062
5065
5058
5039
5010
4971
4922
4863
4793
4712
4619
4511
4388
4251
4098
3933
3755
3566
3368
3161
2946
2723
2491
2253
2006
1753
1493
1227
957
685
411
138
-132
-400
-664
-925
-1182
-1435
-1684
-1929
-2169
-2404
-2632
-2855
-3070
-3277
-3476
-3664
-3842
-4007
-4159
-4297
-4421
-4529
-4623
-4704
-4774
-4832
-4881
-4920
-4949
-4969
-4977
-4975
-4962
-4937
-4903
-4858
-4804
-4740
-4667
-4584
-4490
-4384
-4266
-4134
-3990
-3832
-3662
-3481
-3290
-3088
-2877
-2658
-2431
-2196
-1954
-1707
-1454
-1198
-938
-675
-411
-146
118
384
649
912
1173
1431
1686
1936
2182
2422
2656
2883
3102
3313
3513
3703
3881
4047
4200
4339
4463
4573
4668
4751
4822
4883
4935
4977
5010
5032
5045
5046
5036
5016
4984
4942
4891
4830
4758
4676
4581
4473
4350
4211
4058
3892
3712
3522
3321
3112
2894
2669
2437
2197
1951
1697
1437
1172
902
629
355
 82
-190
-460
-727
-990
-1249
-1504
-1754
-1999
-2238
-2471
-2698
-2918
-3129
-3332
-3525
-3708
-3880
-4039
-4186
-4320
-4441
-4548
-4642
-4724
-4795
-4856
-4907
-4949
-4981
-5003
-5015
-5015
-5004
-4981
-4948
-4905
-4852
-4789
-4716
-4631
-4534
-4424
-4300
-4163
-4011
-3848
-3672
-3486
-3291
-3085
-2871
-2649
-2418
-2180
-1934
-1683
-1427
-1167
-903
-638
-371
-103
164
431
698
962
1223
1480
1733
1981
2223
2460
2690
2913
3128
3334
3530
3716
3892
4055
4206
4343
4465
4573
4665
4745
4812
4868
4914
4951
4979
4996
5003
5000
4985
4960
4924
4878
4824
4760
4686
4602
4506
4398
4275
4139
3987
3822
3644
3455
3256
3047
2830
2604
2372
2131
1884
1630
1369
1102
832
559
286
 13
-256
-524
-789
-1050
-1306
-1559
-1807
-2050
-2289
-2522
-2749
-2968
-3180
-3382
-3574
-3756
-3925
-4081
-4225
-4355
-4471
-4575
-4666
-4745
-4814
-4872
-4921
-4960
-4990
-5010
-5018
-5016
-5003
-4978
-4943
-4898
-4843
-4778
-4702
-4616
-4517
-4405
-4278
-4137
-3980
-3810
-3626
-3431
-3225
-3009
-2786
-2555
-2319
-2079
-1834
-1585
-1333
-1078
-820
-559
-296
-31
234
501
768
1033
1296
1554
1807
2054
2295
2530
2758
2978
3191
3394
3588
3771
3944
4104
4251
4385
4505
4610
4702
4780
4847
4903
4949
4986
5013
5030
5037
5033
5019
4993
4958
4913
4858
4795
4721
4636
4539
4428
4303
4162
4006
3836
3652
3455
3247
3028
2800
2563
2320
2070
1815
1555
1292
1025
757
488
219
-47
-312
-574
-834
-1091
-1344
-1593
-1839
-2081
-2319
-2552
-2779
-3000
-3213
-3418
-3612
-3794
-3964
-4121
-4263
-4390
-4503
-4602
-4688
-4762
-4825
-4879
-4923
-4957
-4981
-4995
-4998
-4989
-4969
-4937
-4896
-4844
-4783
-4711
-4629
-4536
-4432
-4314
-4185
-4043
-3889
-3724
-3547
-3360
-3164
-2957
-2740
-2515
-2281
-2040
-1792
-1538
-1279
-1016
-751
-484
-215
 53
322
591
859
1126
1389
1649
1904
2154
2398
2634
2862
3081
3291
3489
3677
3854
4018
4170
4308
4432
4543
4639
4723
4796
4859
4912
4956
4990
5015
5029
5033
5025
5007
4979
4940
4892
4835
4768
4690
4601
4499
4382
4251
4105
3944
3769
3580
3380
3168
2945
2715
2476
2232
1983
1730
1474
1214
952
689
425
161
-102
-365
-626
-886
-1144
-1399
-1650
-1898
-2141
-2378
-2610
-2834
-3051
-3260
-3459
-3649
-3827
-3992
-4144
-4281
-4404
-4511
-4605
-4686
-4756
-4815
-4865
-4906
-4937
-4958
-4969
-4969
-4959
-4937
-4905
-4863
-4812
-4751
-4680
-4599
-4507
-4403
-4286
-4155
-4010
-3853
-3683
-3501
-3308
-3104
-2891
-2669
-2439
-2202
-1959
-1712
-1460
-1205
-948
-690
-430
-169
 91
353
616
879
1141
1402
1660
1913
2162
2404
2638
2864
3080
3286
3482
3667
3842
4005
4157
4295
4418
4528
4624
4707
4779
4841
4893
4935
4969
4993
5006
5008
5000
4981
4951
4911
4861
4802
4732
4650
4555
4445
4320
4180
4026
3858
3678
3487
3287
3077
2858
2631
2397
2155
1907
1654
1395
1133
868
602
335
 68
-197
-461
-725
-986
-1245
-1500
-1752
-1998
-2238
-2471
-2695
-2911
-3119
-3317
-3506
-3686
-3855
-4015
-4163
-4299
-4422
-4532
-4628
-4712
-4784
-4845
-4895
-4936
-4966
-4985
-4994
-4991
-4977
-4952
-4916
-4870
-4815
-4750
-4675
-4590
-4493
-4383
-4260
-4123
-3972
-3808
-3633
-3446
-3251
-3047
-2836
-2617
-2393
-2161
-1924
-1681
-1432
-1178
-918
-654
-387
-117
153
425
695
962
1226
1485
1738
1984
2224
2458
2685
2905
3118
3324
3521
3710
3888
4055
4209
4348
4472
4581
4675
4755
4824
4882
4931
4971
5001
5022
5033
5032
5021
4999
4967
4925
4873
4811
4739
4654
4556
4442
4311
4164
4002
3826
3639
3443
3240
3030
2815
2593
2365
2130
1887
1637
1378
1112
840
565
287
  9
-267
-541
-810
-1075
-1333
-1586
-1832
-2073
-2309
-2540
-2765
-2985
-3198
-3402
-3598
-3782
-3954
-4112
-4256
-4385
-4499
-4599
-4686
-4762
-4828
-4883
-4930
-4967
-4995
-5012
-5018
-5013
-4996
-4968
-4930
-4881
-4823
-4755
-4677
-4588
-4488
-4375
-4250
-4111
-3959
-3795
-3618
-3430
-3232
-3024
-2807
-2582
-2350
-2113
-1870
-1623
-1373
-1119
-863
-605
-344
-81
184
453
723
995
1267
1536
1801
2060
2311
2552
2784
3004
3213
3410
3596
3772
3936
4091
4234
4366
4485
4592
4685
4766
4836
4895
4944
4984
5013
5032
5041
5038
5024
5000
4965
4919
4864
4798
4721
4631
4527
4408
4274
4125
3962
3787
3601
3405
3202
2991
2772
2547
2314
2074
1827
1572
1312
1046
776
504
231
-40
-310
-578
-842
-1102
-1357
-1607
-1851
-2090
-2323
-2550
-2771
-2986
-3194
-3394
-3587
-3769
-3941
-4101
-4246
-4377
-4493
-4593
-4680
-4754
-4817
-4869
-4912
-4945
-4969
-4982
-4984
-4975
-4955
-4925
-4885
-4835
-4777
-4708
-4629
-4539
-4436
-4320
-4191
-4047
-3891
-3722
-3541
-3349
-3149
-2939
-2722
-2498
-2267
-2030
-1787
-1539
-1286
-1027
-765
-499
-231
 39
309
580
849
1114
1375
1629
1876
2116
2348
2574
2792
3005
3210
3408
3598
3779
3950
4110
4258
4392
4512
4617
4708
4786
4852
4907
4953
4988
5014
5029
5034
5029
5012
4985
4948
4901
4844
4778
4700
4611
4508
4391
4259
4113
3951
3776
3587
3386
3174
2951
2720
2482
2238
1988
1735
1477
1215
951
683
415
145
-123
-392
-659
-924
-1185
-1443
-1695
-1942
-2182
-2415
-2640
-2857
-3066
-3265
-3456
-3638
-3809
-3969
-4118
-4254
-4378
-4488
-4585
-4670
-4744
-4808
-4861
-4905
-4939
-4963
-4975
-4976
-4965
-4943
-4909
-4865
-4811
-4747
-4674
-4589
-4493
-4385
-4264
-4130
-3984
-3825
-3654
-3473
-3282
-3081
-2872
-2654
-2429
-2197
-1958
-1713
-1464
-1210
-953
-693
-431
-167
 97
364
631
898
1164
1428
1688
1942
2192
2434
2669
2895
3113
3321
3519
3707
3885
4050
4203
4340
4463
4570
4662
4741
4808
4864
4911
4950
4979
4999
5009
5009
4998
4977
4946
4906
4856
4797
4728
4648
4556
4450
4330
4194
4044
3879
3702
3513
3314
3105
2886
2659
2423
2179
1927
1668
1404
1134
862
588
314
 42
-226
-492
-754
-1012
-1265
-1514
-1759
-1999
-2233
-2462
-2684
-2900
-3108
-3309
-3501
-3683
-3855
-4015
-4164
-4299
-4421
-4529
-4625
-4708
-4779
-4840
-4891
-4933
-4964
-4985
-4996
-4995
-4982
-4959
-4924
-4880
-4826
-4762
-4688
-4603
-4506
-4396
-4272
-4134
-3982
-3818
-3641
-3454
-3257
-3051
-2837
-2615
-2386
-2151
-1911
-1665
-1415
-1161
-904
-643
-380
-114
152
422
692
963
1231
1495
1753
2004
2247
2482
2708
2925
3133
3331
3520
3699
3869
4028
4178
4316
4441
4554
4653
4739
4812
4874
4925
4966
4998
5019
5030
5030
5018
4996
4963
4920
4867
4805
4732
4648
4550
4439
4313
4172
4015
3845
3662
3467
3261
3045
2820
2588
2349
2105
1854
1600
1341
1079
814
548
280
 13
-253
-519
-784
-1047
-1307
-1563
-1815
-2061
-2301
-2534
-2759
-2977
-3186
-3386
-3577
-3759
-3929
-4088
-4235
-4367
-4486
-4590
-4680
-4758
-4824
-4879
-4924
-4960
-4987
-5004
-5010
-5006
-4990
-4965
-4928
-4883
-4827
-4763
-4689
-4605
-4508
-4399
-4274
-4135
-3979
-3809
-3625
-3429
-3222
-3007
-2783
-2554
-2319
-2080
-1837
-1590
-1340
-1087
-831
-573
-312
-49
214
480
747
1014
1281
1545
1805
2061
2310
2551
2784
3007
3220
3422
3613
3791
3959
4114
4257
4388
4505
4609
4700
4779
4847
4905
4953
4992
5021
5039
5048
5045
5032
5007
4973
4928
4873
4808
4731
4642
4538
4419
4284
4134
3968
3789
3598
3395
3182
2960
2730
2494
2252
2005
1753
1498
1238
975
709
441
172
-95
-362
-627
-888
-1146
-1398
-1645
-1887
-2122
-2353
-2577
-2797
-3010
-3218
-3419
-3613
-3797
-3970
-4130
-4276
-4407
-4522
-4621
-4707
-4779
-4839
-4890
-4931
-4962
-4984
-4995
-4995
-4985
-4964
-4932
-4891
-4840
-4779
-4709
-4629
-4538
-4434
-4318
-4188
-4046
-3890
-3722
-3542
-3351
-3151
-2941
-2722
-2495
-2261
-2022
-1777
-1528
-1277
-1022
-766
-508
-248
 13
277
543
809
1076
1342
1605
1863
2115
2360
2596
2822
3038
3243
3438
3623
3798
3963
4118
4262
4393
4511
4615
4704
4781
4846
4900
4943
4977
5001
5015
5019
5011
4993
4964
4925
4877
4819
4750
4671
4579
4474
4354
4218
4066
3901
3723
3534
3335
3128
2914
2694
2468
2235
1996
1749
1495
1234
967
694
419
142
-134
-408
-678
-943
-1203
-1457
-1705
-1946
-2182
-2412
-2636
-2853
-3064
-3268
-3462
-3647
-3821
-3983
-4133
-4269
-4392
-4502
-4599
-4685
-4760
-4825
-4880
-4926
-4962
-4988
-5002
-5005
-4997
-4976
-4945
-4903
-4851
-4789
-4716
-4633
-4539
-4432
-4312
-4179
-4033
-3875
-3704
-3521
-3327
-3123
-2910
-2687
-2456
-2218
-1974
-1724
-1469
-1210
-948
-683
-416
-148
120
389
658
926
1193
1457
1718
1974
2225
2469
2705
2932
3149
3354
3547
3727
3895
4050
4192
4322
4439
4544
4637
4718
4789
4850
4902
4946
4980
5005
5019
5023
5016
4997
4968
4929
4880
4821
4751
4669
4573
4464
4339
4199
4044
3877
3696
3505
3303
3092
2871
2643
2407
2165
1918
1665
1407
1146
882
615
348
 80
-187
-453
-718
-979
-1238
-1491
-1740
-1984
-2222
-2454
-2679
-2899
-3112
-3317
-3515
-3704
-3883
-4050
-4203
-4342
-4466
-4574
-4667
-4746
-4812
-4868
-4913
-4948
-4973
-4989
-4994
-4988
-4971
-4943
-4905
-4858
-4801
-4736
-4661
-4576
-4480
-4372
-4250
-4113
-3961
-3795
-3615
-3424
-3222
-3011
-2793
-2569
-2339
-2104
-1865
-1621
-1372
-1119
-862
-601
-338
-71
195
463
730
994
1254
1509
1758
2000
2234
2463
2685
2902
3113
3318
3516
3705
3884
4051
4205
4344
4467
4576
4669
4748
4816
4872
4919
4957
4985
5004
5012
5010
4997
4974
4940
4897
4844
4781
4709
4626
4531
4423
4301
4163
4010
3844
3663
3471
3267
3053
2830
2599
2360
2116
1866
1611
1353
1091
826
559
291
 23
-244
-511
-776
-1038
-1296
-1550
-1798
-2039
-2274
-2502
-2723
-2936
-3142
-3341
-3531
-3712
-3884
-4044
-4192
-4327
-4447
-4554
-4646
-4725
-4793
-4849
-4895
-4932
-4958
-4974
-4979
-4973
-4956
-4928
-4890
-4842
-4784
-4716
-4637
-4547
-4444
-4329
-4200
-4057
-3902
-3735
-3557
-3369
-3171
-2964
-2749
-2526
-2295
-2059
-1817
-1570
-1319
-1065
-808
-548
-285
-20
246
516
787
1057
1327
1592
1853
2107
2354
2591
2820
3039
3248
3447
3637
3817
3986
4145
4291
4424
4542
4646
4736
4813
4878
4932
4977
5011
5036
5051
5056
5050
5034
5006
4969
4923
4866
4800
4723
4635
4533
4417
4288
4144
3986
3814
3630
3434
3227
3009
2782
2548
2306
2059
1806
1550
1289
1026
762
496
229
-36
-302
-566
-829
-1088
-1344
-1596
-1842
-2083
-2317
-2545
-2766
-2980
-3186
-3384
-3573
-3752
-3920
-4076
-4219
-4347
-4462
-4562
-4649
-4724
-4789
-4843
-4888
-4924
-4950
-4965
-4970
-4963
-4945
-4917
-4878
-4830
-4772
-4704
-4625
-4534
-4431
-4313
-4182
-4036
-3878
-3707
-3526
-3335
-3135
-2927
-2711
-2488
-2259
-2023
-1781
-1533
-1280
-1024
-764
-503
-241
 21
285
548
812
1075
1337
1597
1855
2108
2356
2597
2830
3053
3265
3465
3654
3832
3998
4152
4294
4422
4538
4639
4728
4804
4868
4922
4966
5001
5026
5041
5045
5039
5022
4995
4957
4910
4853
4786
4708
4617
4511
4390
4251
4096
3925
3740
3543
3336
3122
2901
2674
2443
2207
1966
1720
1468
1211
950
684
415
145
-124
-393
-660
-922
-1181
-1434
-1681
-1923
-2160
-2391
-2616
-2836
-3049
-3255
-3454
-3643
-3822
-3989
-4143
-4283
-4408
-4518
-4614
-4698
-4769
-4830
-4881
-4922
-4953
-4975
-4985
-4985
-4974
-4951
-4919
-4876
-4824
-4762
-4691
-4611
-4519
-4416
-4301
-4172
-4030
-3874
-3705
-3523
-3329
-3125
-2910
-2686
-2455
-2217
-1974
-1727
-1476
-1222
-964
-705
-443
-178
 87
355
624
892
1158
1421
1678
1928
2172
2408
2637
2860
3075
3283
3483
3674
3855
4023
4178
4318
4442
4551
4644
4724
4793
4852
4901
4941
4973
4995
5006
5008
4998
4977
4946
4905
4855
4794
4723
4641
4547
4439
4316
4178
4026
3860
3680
3490
3288
3076
2856
2628
2393
2152
1907
1656
1401
1143
881
617
351
 84
-182
-448
-713
-976
-1236
-1493
-1745
-1992
-2233
-2468
-2696
-2916
-3127
-3329
-3522
-3704
-3876
-4036
-4184
-4319
-4441
-4549
-4644
-4727
-4798
-4859
-4909
-4950
-4980
-4999
-5007
-5004
-4989
-4962
-4925
-4877
-4820
-4752
-4675
-4587
-4488
-4377
-4253
-4116
-3966
-3804
-3630
-3445
-3250
-3045
-2831
-2609
-2379
-2142
-1899
-1652
-1401
-1146
-888
-628
-366
-101
164
431
699
967
1234
1497
1757
2010
2257
2496
2727
2947
3158
3358
3548
3727
3897
4057
4207
4344
4469
4581
4678
4763
4834
4895
4944
4985
5015
5035
5045
5045
5033
5010
4977
4933
4881
4818
4746
4664
4569
4459
4335
4194
4036
3863
3674
3473
3262
3042
2816
2585
2350
2111
1868
1621
1369
1111
849
583
313
 42
-230
-502
-772
-1039
-1302
-1560
-1811
-2056
-2294
-2525
-2748
-2964
-3172
-3372
-3562
-3743
-3912
-4070
-4215
-4347
-4464
-4568
-4660
-4738
-4806
-4864
-4912
-4951
-4980
-5000
-5008
-5006
-4993
-4968
-4933
-4887
-4832
-4767
-4691
-4603
-4503
-4389
-4261
-4118
-3962
-3793
-3614
-3425
-3228
-3024
-2812
-2594
-2369
-2136
-1897
-1649
-1395
-1135
-868
-598
-324
-48
227
502
775
1045
1310
1568
1819
2061
2294
2520
2739
2952
3159
3359
3552
3737
3913
4078
4231
4369
4493
4602
4696
4776
4844
4902
4950
4988
5016
5034
5042
5039
5025
5000
4966
4921
4866
4801
4724
4635
4532
4413
4280
4131
3969
3794
3608
3412
3208
2995
2774
2547
2312
2072
1824
1571
1313
1049
783
514
246
-22
-288
-553
-815
-1074
-1329
-1580
-1827
-2069
-2306
-2537
-2763
-2981
-3192
-3394
-3587
-3769
-3939
-4096
-4239
-4367
-4481
-4581
-4668
-4742
-4806
-4860
-4904
-4940
-4966
-4981
-4986
-4980
-4962
-4934
-4896
-4848
-4790
-4723
-4646
-4558
-4458
-4345
-4217
-4075
-3919
-3749
-3567
-3375
-3172
-2961
-2743
-2518
-2286
-2049
-1806
-1559
-1307
-1051
-791
-528
-263
  3
272
542
812
1081
1347
1609
1866
2116
2359
2593
2819
3035
3241
3438
3624
3801
3966
4121
4264
4394
4510
4613
4704
4782
4849
4905
4952
4990
5018
5037
5044
5041
5026
5001
4965
4918
4862
4794
4715
4623
4517
4396
4261
4112
3951
3778
3596
3403
3201
2990
2770
2541
2304
2059
1808
1552
1290
1025
758
490
223
-43
-309
-573
-835
-1095
-1353
-1607
-1857
-2101
-2340
-2571
-2795
-3010
-3217
-3414
-3601
-3778
-3945
-4100
-4243
-4372
-4488
-4589
-4677
-4753
-4818
-4872
-4916
-4950
-4973
-4986
-4987
-4977
-4955
-4922
-4879
-4826
-4763
-4690
-4607
-4512
-4406
-4286
-4153
-4008
-3850
-3681
-3502
-3312
-3115
-2908
-2694
-2472
-2242
-2004
-1760
-1509
-1252
-991
-726
-458
-189
 79
349
617
883
1146
1405
1658
1906
2147
2382
2610
2831
3044
3250
3448
3638
3818
3989
4147
4293
4424
4540
4640
4726
4800
4862
4914
4957
4990
5014
5028
5031
5024
5005
4977
4938
4890
4833
4765
4686
4594
4488
4366
4229
4075
3907
3726
3533
3331
3120
2902
2677
2447
2210
1968
1720
1466
1206
941
673
403
132
-138
-408
-676
-942
-1204
-1463
-1717
-1966
-2209
-2445
-2672
-2891
-3100
-3299
-3488
-3667
-3835
-3993
-4139
-4274
-4396
-4506
-4602
-4687
-4760
-4822
-4874
-4916
-4948
-4969
-4979
-4978
-4966
-4942
-4907
-4862
-4808
-4745
-4672
-4589
-4495
-4388
-4269
-4136
-3989
-3828
-3653
-3467
-3270
-3063
-2849
-2628
-2401
-2169
-1931
-1689
-1442
-1189
-932
-671
-405
-137
133
403
674
942
1206
1466
1720
1968
2211
2447
2677
2900
3116
3325
3525
3716
3896
4064
4219
4359
4484
4594
4689
4771
4841
4900
4950
4991
5022
5043
5054
5054
5042
5020
4987
4944
4891
4828
4756
4672
4577
4469
4347
4210
4059
3894
3716
3526
3325
3114
2894
2666
2431
2191
1944
1693
1436
1175
910
641
370
 98
-173
-444
-713
-979
-1241
-1497
-1748
-1992
-2230
-2460
-2683
-2898
-3105
-3304
-3494
-3675
-3846
-4006
-4153
-4288
-4410
-4518
-4614
-4697
-4769
-4830
-4881
-4923
-4954
-4975
-4985
-4984
-4971
-4947
-4912
-4867
-4812
-4747
-4672
-4586
-4488
-4378
-4253
-4115
-3963
-3798
-3622
-3435
-3239
-3033
-2819
-2598
-2370
-2135
-1895
-1650
-1401
-1148
-891
-631
-369
-104
163
432
701
969
1234
1493
1746
1992
2230
2460
2683
2900
3109
3311
3505
3691
3868
4035
4190
4332
4459
4571
4666
4748
4816
4872
4919
4955
4983
5000
5008
5005
4992
4968
4935
4891
4839
4777
4705
4621
4524
4413
4286
4143
3984
3811
3626
3430
3226
3013
2795
2570
2340
2104
1862
1613
1357
1093
824
550
274
 -1
-276
-548
-816
-1079
-1336
-1587
-1833
-2074
-2310
-2541
-2766
-2986
-3199
-3404
-3600
-3784
-3956
-4114
-4257
-4385
-4499
-4598
-4685
-4761
-4827
-4883
-4931
-4970
-4999
-5018
-5026
-5023
-5008
-4982
-4945
-4898
-4841
-4774
-4697
-4608
-4507
-4394
-4266
-4125
-3972
-3806
-3628
-3440
-3242
-3035
-2818
-2592
-2359
-2118
-1872
-1622
-1367
-1110
-850
-589
-326
-62
203
470
740
1009
1277
1542
1802
2054
2298
2534
2760
2978
3186
3386
3576
3757
3928
4088
4236
4371
4491
4598
4690
4770
4837
4893
4940
4977
5004
5021
5028
5024
5009
4984
4947
4901
4846
4781
4705
4618
4518
4404
4275
4131
3972
3799
3615
3419
3214
3000
2779
2550
2316
2076
1829
1577
1319
1056
789
519
248
-22
-292
-561
-827
-1090
-1349
-1603
-1853
-2096
-2334
-2566
-2791
-3008
-3217
-3417
-3607
-3786
-3953
-4107
-4248
-4376
-4489
-4588
-4676
